 -6.1852610e-002
 -8.5441548e-002
 -7.6559590e-002
 -8.2959634e-002
 -7.5513409e-002
 -8.0468080e-002
 -7.3794951e-002
 -4.8279248e-002
 -5.7243787e-002
 -7.1514847e-002
 -7.9118324e-002
 -8.2741053e-002
 -8.9894977e-002
 -7.5376863e-002
 -6.2053848e-002
 -6.8535171e-002
 -7.6731956e-002
 -7.7196128e-002
 -6.6226969e-002
 -6.0158724e-002
 -5.4037620e-002
 -4.8812811e-002
 -5.5643914e-002
 -6.6287691e-002
 -7.3288189e-002
 -6.2996560e-002
 -5.7862127e-002
 -5.0109009e-002
 -5.6698000e-002
 -6.5054747e-002
 -5.1849602e-002
 -4.5886243e-002
 -4.7754702e-002
 -4.9773365e-002
 -4.8769317e-002
 -5.3641696e-002
 -7.6208212e-002
 -7.3570889e-002
 -5.5243180e-002
 -5.2798285e-002
 -3.4881696e-002
 -1.5589479e-002
 -1.8886673e-002
 -2.8747819e-003
  1.6286072e-002
  3.8264676e-002
  7.1617262e-002
  1.0479494e-001
  1.3628325e-001
  1.1693740e-001
  9.9763435e-002
  9.8126204e-002
  1.0344321e-001
  9.7998564e-002
  6.4248497e-002
  1.1824312e-002
 -4.3586662e-002
 -8.3471767e-002
 -9.0357232e-002
 -7.5498677e-002
 -8.4079958e-002
 -9.4874513e-002
 -1.1625660e-001
 -1.2920253e-001
 -1.3920765e-001
 -1.2834450e-001
 -1.2128555e-001
 -1.2346671e-001
 -1.3035043e-001
 -1.5207145e-001
 -7.4744423e-002
  1.5226142e-001
  5.3561002e-001
  1.0122491e+000
  1.4617062e+000
  1.6567374e+000
  1.4195767e+000
  8.5942808e-001
  2.6269132e-001
 -1.1208577e-001
 -2.2571382e-001
 -1.7203533e-001
 -1.1113595e-001
 -1.3103084e-001
 -1.5839410e-001
 -1.8463355e-001
 -1.8557016e-001
 -1.6389345e-001
 -1.7797125e-001
 -1.8179751e-001
 -2.0621749e-001
 -2.1626603e-001
 -1.7790972e-001
 -1.5051183e-001
 -1.5675929e-001
 -1.7270352e-001
 -1.7124940e-001
 -1.9369894e-001
 -1.7199581e-001
 -1.3589892e-001
 -1.3060072e-001
 -1.3576830e-001
 -1.4028490e-001
 -1.5075132e-001
 -1.4985691e-001
 -1.4131120e-001
 -1.0819372e-001
 -8.8166760e-002
 -7.9971225e-002
 -8.0213539e-002
 -8.6723913e-002
 -8.1385846e-002
 -6.5711311e-002
 -3.8393223e-002
 -2.0019797e-002
 -2.3130287e-002
 -3.2174491e-002
 -3.3234247e-002
 -3.5243779e-002
 -3.4190723e-002
 -2.2751667e-002
 -8.7909646e-003
 -2.8809059e-002
 -2.9868804e-002
 -8.3802036e-003
  1.7693147e-002
  6.0588293e-002
  6.0722244e-002
  6.3818318e-002
  7.0347271e-002
  5.2222576e-002
  3.9791432e-002
  4.2461477e-002
  4.1724818e-002
  4.5392941e-002
  3.1419774e-002
  2.2886062e-002
  2.4887647e-002
  2.8893125e-002
  3.5343094e-002
  3.0372554e-002
  3.3530231e-002
  3.2794870e-002
  2.8948162e-002
  2.7489459e-002
  3.0803771e-002
  3.8279243e-002
  4.3125995e-002
  4.1059445e-002
  2.1321482e-002
  3.7996877e-002
  5.1086071e-002
  5.0960586e-002
  5.8664267e-002
  5.5146602e-002
  5.2255411e-002
  3.8198611e-002
  4.5264819e-002
  5.7263155e-002
  7.1668148e-002
  7.5449954e-002
  5.2545684e-002
  3.8507975e-002
  3.3765088e-002
  4.5723074e-002
  4.7924050e-002
  5.9718557e-002
  6.0637533e-002
  6.6383816e-002
  5.5443091e-002
  6.1552109e-002
  9.4446025e-002
  1.2178507e-001
  1.3459346e-001
  1.6958956e-001
  1.9194777e-001
  2.0360485e-001
  2.1294014e-001
  2.0943571e-001
  2.1380059e-001
  2.2043814e-001
  2.0853614e-001
  1.6385597e-001
  1.0831407e-001
  7.0200839e-002
  4.7236097e-002
  4.0672009e-002
  2.8867664e-002
  1.2525378e-002
  3.3455108e-003
 -8.3442073e-003
 -1.6683297e-002
 -2.0500867e-002
 -1.3659689e-002
 -1.0138675e-002
 -2.1974744e-002
 -4.1182496e-002
 -6.2868808e-002
 -2.2217885e-002
  1.3902456e-001
  3.9509530e-001
  7.9930629e-001
  1.2683795e+000
  1.6611642e+000
  1.7516749e+000
  1.4068707e+000
  8.1202663e-001
  2.6280581e-001
 -5.0153879e-002
 -1.1398825e-001
 -5.9582831e-002
 -1.3941542e-002
 -4.5621230e-002
 -9.0140191e-002
 -1.2524742e-001
 -1.1930425e-001
 -1.2446294e-001
 -1.3202516e-001
 -1.2307049e-001
 -1.2202902e-001
 -1.1476272e-001
 -1.1507578e-001
 -1.3496996e-001
 -1.4361798e-001
 -1.2691940e-001
 -1.2009899e-001
 -1.1282908e-001
 -1.0442972e-001
 -1.1474160e-001
 -1.2388853e-001
 -1.1745918e-001
 -1.0201950e-001
 -8.9458443e-002
 -7.1533367e-002
 -6.9546662e-002
 -9.2645554e-002
 -9.5401006e-002
 -8.4927310e-002
 -7.2614977e-002
 -4.8794857e-002
 -2.6817334e-002
 -3.0657113e-002
 -4.5508698e-002
 -4.9706888e-002
 -3.8861579e-002
 -1.7765312e-002
  7.9530074e-003
  3.9565528e-003
 -1.6417745e-002
 -3.1552144e-002
 -2.4500277e-002
 -2.7080580e-002
 -8.6063550e-003
  9.0530121e-003
  1.3712313e-003
 -1.2914335e-003
  1.4369218e-003
  1.4665270e-002
  2.7138084e-002
  6.2657934e-002
  7.1634677e-002
  5.6530061e-002
  2.5742823e-002
  2.5606227e-002
  1.6511273e-002
  2.0528884e-002
  3.3364110e-002
  3.9388206e-002
  3.7121163e-002
  2.0096911e-002
  9.5032701e-003
 -4.3415113e-003
 -5.1687861e-003
  9.8471682e-003
  3.4972577e-002
  3.6734967e-002
  1.2933278e-002
 -5.2181290e-003
  4.0998182e-003
  1.2486577e-002
  2.7225377e-002
  2.5829104e-002
  2.2353286e-002
  1.4505765e-002
  2.3745746e-002
  2.5513194e-002
  3.4260714e-002
  2.4980887e-002
  3.3562907e-002
  3.4390223e-002
  3.9363821e-002
  3.7370422e-002
  3.7824243e-002
  3.1428759e-002
  3.2407284e-002
  2.6339196e-002
  1.5159504e-002
  1.9517204e-002
  3.5488856e-002
  2.8526862e-002
  4.2561297e-002
  6.0099486e-002
  5.1637500e-002
  6.2354157e-002
  9.0770209e-002
  1.2354195e-001
  1.5260907e-001
  1.8027251e-001
  2.0756505e-001
  1.9294465e-001
  1.5726583e-001
  1.6095224e-001
  1.9171861e-001
  2.0206146e-001
  1.6721491e-001
  1.2236236e-001
  6.3313352e-002
  2.3511619e-002
  8.3301353e-003
 -8.7430611e-004
 -2.0706276e-002
 -4.0807230e-002
 -4.3306832e-002
 -7.4147170e-002
 -8.5288827e-002
 -7.9128060e-002
 -6.8811202e-002
 -6.5560437e-002
 -7.0486540e-002
 -8.2061018e-002
 -1.1487374e-001
 -8.2681339e-002
  6.6060987e-002
  3.2311522e-001
  7.0213434e-001
  1.1754677e+000
  1.6129141e+000
  1.7300393e+000
  1.4181224e+000
  8.4696083e-001
  2.7064688e-001
 -7.0242921e-002
 -1.5697143e-001
 -1.0985228e-001
 -8.0286887e-002
 -1.0022656e-001
 -1.3692028e-001
 -1.6794531e-001
 -1.7879201e-001
 -1.6519262e-001
 -1.7944819e-001
 -1.7829890e-001
 -1.7044857e-001
 -1.6862068e-001
 -1.7928752e-001
 -1.8514505e-001
 -1.8266885e-001
 -1.7511889e-001
 -1.6060098e-001
 -1.5140207e-001
 -1.5327766e-001
 -1.5990892e-001
 -1.6587853e-001
 -1.7290890e-001
 -1.6234388e-001
 -1.4574093e-001
 -1.2031423e-001
 -1.3507886e-001
 -1.3477937e-001
 -1.3725434e-001
 -1.3746374e-001
 -1.1599000e-001
 -1.0553559e-001
 -9.4494637e-002
 -9.6754224e-002
 -9.1306574e-002
 -9.4156936e-002
 -9.8719840e-002
 -6.9590686e-002
 -3.7132728e-002
 -2.4587774e-002
 -3.2052371e-002
 -4.4872239e-002
 -6.2730686e-002
 -6.2939973e-002
 -3.7905662e-002
 -2.0950639e-002
 -1.2043772e-002
 -1.4367632e-002
 -1.5419382e-002
 -1.8872796e-002
 -2.1306622e-003
  1.6347438e-002
  2.9577191e-002
  2.3253844e-002
  5.3980521e-003
 -1.6948898e-002
 -3.0633929e-002
 -2.1279592e-002
 -1.9497355e-002
 -1.4778846e-002
 -1.9919910e-002
 -3.9783170e-002
 -5.2271027e-002
 -6.4530211e-002
 -5.6728162e-002
 -3.4607469e-002
 -1.2436988e-002
 -2.0055885e-002
 -4.0367933e-002
 -5.2383960e-002
 -4.8692958e-002
 -3.3255685e-002
 -1.8123022e-002
 -1.3786251e-002
 -2.1483175e-002
 -4.0555660e-002
 -4.3930358e-002
 -3.5063305e-002
 -1.5149188e-002
  1.1166285e-003
 -2.4003277e-003
 -2.3424442e-002
 -3.5534482e-002
 -3.5305919e-002
 -5.1953533e-002
 -4.3629867e-002
 -3.2072392e-002
 -2.7393406e-002
 -3.0280445e-002
 -3.5981713e-002
 -1.9663479e-002
 -9.1040845e-003
  2.7658051e-002
  4.8199237e-002
  4.5743751e-002
  4.8323757e-002
  7.6770070e-002
  9.9818525e-002
  1.2447473e-001
  1.3903586e-001
  1.1588020e-001
  1.1681609e-001
  1.1972787e-001
  1.0478331e-001
  6.6274671e-002
  2.3299009e-002
 -4.8655424e-003
 -2.8042634e-002
 -6.3344691e-002
 -8.7475476e-002
 -9.3989547e-002
 -1.0277172e-001
 -1.0090045e-001
 -9.9398045e-002
 -1.1197768e-001
 -1.2894386e-001
 -1.2794524e-001
 -1.1221382e-001
 -1.0646754e-001
 -1.3018183e-001
 -1.3697199e-001
 -6.6073255e-002
  9.9784786e-002
  3.9751969e-001
  8.3543045e-001
  1.3271019e+000
  1.6633086e+000
  1.6313546e+000
  1.2006685e+000
  6.2588576e-001
  1.2652683e-001
 -1.1293481e-001
 -1.5310387e-001
 -1.0726524e-001
 -6.6166394e-002
 -1.1852431e-001
 -1.7315650e-001
 -2.0023517e-001
 -1.9355089e-001
 -1.8433765e-001
 -1.8521464e-001
 -1.7816936e-001
 -1.9878460e-001
 -2.0374964e-001
 -2.0148623e-001
 -1.8540703e-001
 -1.8668157e-001
 -1.7923624e-001
 -1.8080071e-001
 -1.8176080e-001
 -1.9214362e-001
 -1.8867417e-001
 -1.7846398e-001
 -1.7452520e-001
 -1.7566353e-001
 -1.7265554e-001
 -1.6906760e-001
 -1.7371239e-001
 -1.4682117e-001
 -1.4867624e-001
 -1.4704352e-001
 -1.3627842e-001
 -1.3245859e-001
 -1.2954890e-001
 -1.1698566e-001
 -9.4096348e-002
 -8.9506621e-002
 -9.6815225e-002
 -9.8487630e-002
 -9.5781339e-002
 -7.7975886e-002
 -7.1649679e-002
 -5.3548441e-002
 -4.7094460e-002
 -6.5812744e-002
 -7.6040454e-002
 -7.0696122e-002
 -6.7559883e-002
 -4.4628466e-002
 -3.4213626e-002
 -2.4182098e-002
 -2.2626175e-002
 -4.2294690e-002
 -3.5776801e-002
 -1.1663768e-002
  2.6995477e-003
  1.6336653e-002
  1.0706191e-002
 -9.9498701e-003
 -1.7619740e-002
 -3.0585298e-002
 -3.1813084e-002
 -6.5778022e-003
 -6.4975051e-003
 -2.0643077e-002
 -3.1703955e-002
 -4.1898816e-002
 -3.7868480e-002
 -3.5707746e-002
 -1.5882805e-002
 -1.0603055e-002
 -1.2347274e-002
 -2.7975811e-002
 -4.1730855e-002
 -4.3036941e-002
 -3.0054957e-002
 -1.6416394e-002
 -1.7452545e-002
 -2.0364753e-002
 -2.5686252e-002
 -2.3841702e-002
 -3.7957394e-002
 -2.4035209e-002
 -6.4110006e-003
 -2.4265343e-002
 -2.7244038e-002
 -3.5741547e-002
 -3.1021618e-002
 -2.5479218e-002
 -2.7770591e-002
 -4.2230573e-002
 -4.8969816e-002
 -6.0626234e-002
 -4.2890458e-002
 -2.5387598e-002
 -2.3128917e-003
  9.8676769e-003
  1.4037932e-002
  2.1711951e-002
  4.1783916e-002
  7.3164434e-002
  1.2950331e-001
  1.5138020e-001
  1.3812721e-001
  1.0509096e-001
  9.7525669e-002
  9.1984834e-002
  8.2165772e-002
  7.0281181e-002
  1.9649554e-002
 -2.1296891e-002
 -5.5985228e-002
 -7.9571198e-002
 -1.0466156e-001
 -9.8195570e-002
 -8.7073193e-002
 -9.1658794e-002
 -1.1182054e-001
 -1.1939641e-001
 -1.3215386e-001
 -1.3728164e-001
 -1.2365465e-001
 -1.3135642e-001
 -1.5065495e-001
 -1.6264086e-001
 -7.3405847e-002
  9.5295444e-002
  3.8714376e-001
  8.2991170e-001
  1.3131650e+000
  1.6326600e+000
  1.5780659e+000
  1.1424533e+000
  5.6829095e-001
  1.0071653e-001
 -1.2802335e-001
 -1.5925203e-001
 -1.0730297e-001
 -8.1884694e-002
 -1.1581322e-001
 -1.6708264e-001
 -1.9078480e-001
 -2.0024447e-001
 -1.8708806e-001
 -1.9396840e-001
 -2.0083897e-001
 -1.9698619e-001
 -1.8381881e-001
 -1.8814793e-001
 -1.8002257e-001
 -1.8509956e-001
 -2.0796654e-001
 -1.9411541e-001
 -1.8519948e-001
 -1.6532693e-001
 -1.5398362e-001
 -1.5159932e-001
 -1.6122881e-001
 -1.7430579e-001
 -1.7519460e-001
 -1.6716211e-001
 -1.5665394e-001
 -1.4135105e-001
 -1.2938463e-001
 -1.3500739e-001
 -1.4672546e-001
 -1.5343229e-001
 -1.5200938e-001
 -1.2206087e-001
 -1.0619157e-001
 -9.9825072e-002
 -9.2034312e-002
 -1.0389089e-001
 -1.1256262e-001
 -9.1055255e-002
 -7.0344561e-002
 -7.3488176e-002
 -6.6556311e-002
 -6.9566361e-002
 -6.7071755e-002
 -6.7798281e-002
 -6.0006128e-002
 -4.9866218e-002
 -6.0961060e-002
 -6.7666768e-002
 -5.8594974e-002
 -1.9541882e-002
 -1.9404237e-003
  1.4367357e-002
  1.3566288e-002
  1.1298050e-002
 -1.9713643e-002
 -2.1628059e-002
 -1.0358570e-003
  4.3010427e-003
  1.0040648e-002
 -1.0553854e-003
 -1.7408314e-002
 -2.8555731e-002
 -2.9135293e-002
 -2.8793937e-002
 -1.4807560e-002
  2.0375387e-003
 -7.3857675e-003
 -3.1334128e-002
 -4.8160142e-002
 -4.7773054e-002
 -3.2013466e-002
 -1.8364364e-002
  2.1524247e-003
  1.2965408e-004
 -2.1415267e-002
 -2.2921080e-002
 -2.8067566e-002
 -2.1036970e-002
 -4.1020230e-003
  8.7393326e-005
 -2.6059046e-003
 -1.2673206e-002
 -2.1265076e-002
 -2.9746122e-002
 -2.6534565e-002
 -8.8745882e-003
 -2.9274444e-003
 -1.6034663e-002
 -1.9539758e-002
 -2.5208569e-002
 -3.0113529e-002
 -1.6739616e-002
 -2.0500313e-002
 -1.4497406e-002
 -1.6673325e-002
 -1.3005948e-002
  8.4837559e-003
  1.9970376e-002
  4.1791410e-002
  6.8783794e-002
  8.3424838e-002
  1.0274816e-001
  1.4108669e-001
  1.6077644e-001
  1.5317673e-001
  1.3632807e-001
  1.3026561e-001
  9.7136903e-002
  5.8913257e-002
  2.6841151e-002
  6.3567864e-003
 -1.4007863e-002
 -4.0404712e-002
 -7.2080342e-002
 -1.0940955e-001
 -1.2020398e-001
 -1.0341425e-001
 -9.7748986e-002
 -9.7942754e-002
 -1.0498867e-001
 -1.1516128e-001
 -1.3547906e-001
 -1.6348990e-001
 -1.6107904e-001
 -1.0485373e-001
  6.3807268e-002
  3.9193716e-001
  8.4601373e-001
  1.3089532e+000
  1.6095148e+000
  1.4771860e+000
  9.3359403e-001
  3.0216049e-001
 -1.1209010e-001
 -2.2057622e-001
 -1.8092197e-001
 -1.1612920e-001
 -1.1225478e-001
 -1.4078871e-001
 -1.7013374e-001
 -1.9135997e-001
 -2.1641894e-001
 -2.2879053e-001
 -2.1674680e-001
 -1.9847139e-001
 -1.7929043e-001
 -1.8597358e-001
 -1.9729702e-001
 -2.0682046e-001
 -2.1449511e-001
 -2.1292249e-001
 -1.8227208e-001
 -1.6902015e-001
 -1.8338165e-001
 -1.9509061e-001
 -2.0240176e-001
 -1.9473378e-001
 -1.8765564e-001
 -1.6239420e-001
 -1.5574793e-001
 -1.4785150e-001
 -1.5394708e-001
 -1.7368334e-001
 -1.6871090e-001
 -1.4262406e-001
 -1.2651348e-001
 -1.1267562e-001
 -1.1595908e-001
 -1.1486398e-001
 -1.1866870e-001
 -1.1601926e-001
 -1.0858854e-001
 -9.8737466e-002
 -9.0406455e-002
 -8.2872467e-002
 -1.0670828e-001
 -1.1503462e-001
 -1.0379478e-001
 -8.5580437e-002
 -8.1143527e-002
 -7.3263648e-002
 -6.0610118e-002
 -4.9422986e-002
 -2.6605660e-002
 -2.5310823e-002
 -2.5093103e-002
 -2.9311994e-002
 -4.4149935e-002
 -4.2129326e-002
 -4.8231974e-002
 -5.2038333e-002
 -4.2837508e-002
 -4.2147472e-002
 -6.3386692e-002
 -8.8370694e-002
 -9.0515704e-002
 -8.4043752e-002
 -7.4986546e-002
 -5.2758350e-002
 -4.1430383e-002
 -5.8213000e-002
 -7.9495862e-002
 -8.4279662e-002
 -8.1555866e-002
 -7.1409612e-002
 -4.1395540e-002
 -5.0892805e-002
 -7.2102888e-002
 -8.2475509e-002
 -9.2318524e-002
 -8.0636769e-002
 -5.7374597e-002
 -4.6598258e-002
 -4.6534345e-002
 -7.1271621e-002
 -6.8165219e-002
 -7.3769211e-002
 -7.5072125e-002
 -5.9354305e-002
 -6.3979887e-002
 -6.6302122e-002
 -7.4506725e-002
 -8.3136594e-002
 -7.9503785e-002
 -7.0939148e-002
 -5.1927103e-002
 -2.4215231e-002
 -1.5753740e-002
  1.9646493e-003
  1.4898847e-002
  3.9601870e-002
  6.2498012e-002
  1.0488625e-001
  1.0912282e-001
  9.4077722e-002
  6.7244149e-002
  5.1120710e-002
  5.0630460e-002
  3.5677706e-002
 -7.3201276e-003
 -4.5595572e-002
 -7.4440498e-002
 -1.0180786e-001
 -1.1310967e-001
 -1.2623017e-001
 -1.3022952e-001
 -1.3996385e-001
 -1.5243650e-001
 -1.5378261e-001
 -1.6194781e-001
 -1.6399046e-001
 -1.6567994e-001
 -1.8188250e-001
 -2.0664284e-001
 -2.0914521e-001
 -1.1078752e-001
  1.0218068e-001
  4.7457083e-001
  9.1154431e-001
  1.3300373e+000
  1.5462403e+000
  1.3483155e+000
  8.2277710e-001
  2.5921868e-001
 -1.0192568e-001
 -2.3844916e-001
 -2.1170785e-001
 -1.5551023e-001
 -1.5936824e-001
 -1.9756241e-001
 -2.0939312e-001
 -2.0909060e-001
 -2.1796006e-001
 -2.2558547e-001
 -2.3158841e-001
 -2.5652006e-001
 -2.3904884e-001
 -2.1403257e-001
 -1.9331919e-001
 -2.0617324e-001
 -2.1289062e-001
 -2.4298567e-001
 -2.4312221e-001
 -2.3241629e-001
 -2.2822049e-001
 -1.9348567e-001
 -1.9271808e-001
 -1.9979234e-001
 -2.1322504e-001
 -2.1713422e-001
 -1.9308153e-001
 -1.6616431e-001
 -1.5129465e-001
 -1.4753832e-001
 -1.5548294e-001
 -1.6542193e-001
 -1.4973162e-001
 -1.2304671e-001
 -1.1468304e-001
 -1.0310347e-001
 -1.1405986e-001
 -1.3150910e-001
 -1.2099793e-001
 -1.0876911e-001
 -1.0831799e-001
 -1.0172274e-001
 -1.0612597e-001
 -1.1984643e-001
 -1.1394558e-001
 -9.4797809e-002
 -8.4974089e-002
 -5.7127500e-002
 -2.9857712e-002
 -1.7291343e-002
 -2.9269467e-002
 -4.1526268e-002
 -4.3004041e-002
 -4.3523393e-002
 -2.3279535e-002
 -2.3334747e-002
 -5.2644762e-002
 -7.2166333e-002
 -6.9797647e-002
 -7.4518656e-002
 -7.5359840e-002
 -4.9443614e-002
 -4.3146190e-002
 -5.1243545e-002
 -4.8827246e-002
 -5.3464539e-002
 -5.3208849e-002
 -3.9680407e-002
 -3.3114696e-002
 -4.1290876e-002
 -5.0009712e-002
 -3.8375035e-002
 -4.5918976e-002
 -3.5300146e-002
 -2.0620266e-002
 -2.8222370e-002
 -3.4897969e-002
 -4.0374598e-002
 -4.0580156e-002
 -3.0674796e-002
 -2.2487630e-002
 -2.3801045e-002
 -2.2834629e-002
 -3.0611994e-002
 -3.5568939e-002
 -4.2601459e-002
 -5.1099089e-002
 -4.6508685e-002
 -4.2033364e-002
 -4.4525139e-002
 -3.8452582e-002
 -2.5615132e-002
  2.2344259e-004
  1.8187331e-002
  3.8133342e-002
  4.3723104e-002
  6.0880366e-002
  8.4480917e-002
  1.2274927e-001
  1.2977853e-001
  1.3883808e-001
  1.2447032e-001
  1.1141959e-001
  8.9974377e-002
  4.2578510e-002
  5.4455584e-003
 -1.1882889e-002
 -2.7650183e-002
 -5.7850078e-002
 -8.5982327e-002
 -1.0306203e-001
 -1.2643385e-001
 -1.0993582e-001
 -9.5393062e-002
 -9.4902231e-002
 -1.0830614e-001
 -1.3185366e-001
 -1.4396367e-001
 -1.7294286e-001
 -1.3454993e-001
 -1.7817294e-003
  2.2272795e-001
  5.6731486e-001
  1.0129705e+000
  1.4309063e+000
  1.6448710e+000
  1.4731315e+000
  9.7494529e-001
  3.8689635e-001
 -3.2223360e-002
 -2.0853221e-001
 -2.0139692e-001
 -1.3109794e-001
 -1.0706791e-001
 -1.3267489e-001
 -1.7446630e-001
 -1.9091050e-001
 -2.0752278e-001
 -2.2489664e-001
 -2.2280517e-001
 -2.1125182e-001
 -1.9812812e-001
 -1.9826673e-001
 -1.9603422e-001
 -2.0727155e-001
 -2.1575759e-001
 -2.0791334e-001
 -2.0623918e-001
 -1.9970079e-001
 -1.9696641e-001
 -1.9894051e-001
 -2.0217442e-001
 -2.0813769e-001
 -1.9406111e-001
 -1.8620246e-001
 -1.8946678e-001
 -1.8448299e-001
 -1.8796502e-001
 -2.0045971e-001
 -1.7879637e-001
 -1.5315669e-001
 -1.4743756e-001
 -1.3368016e-001
 -1.5486319e-001
 -1.5600496e-001
 -1.4816913e-001
 -1.3759260e-001
 -1.1674041e-001
 -1.0844786e-001
 -1.1750123e-001
 -1.2546668e-001
 -1.2508647e-001
 -1.1903923e-001
 -1.1347297e-001
 -9.4495557e-002
 -9.7668159e-002
 -1.1995847e-001
 -1.2631792e-001
 -1.1537201e-001
 -9.4560423e-002
 -5.9412896e-002
 -4.4030876e-002
 -4.7507590e-002
 -6.2034280e-002
 -7.2178954e-002
 -8.5905507e-002
 -9.5986697e-002
 -7.4921172e-002
 -5.7997396e-002
 -7.4141574e-002
 -9.3746671e-002
 -1.0965151e-001
 -1.1832640e-001
 -1.1766446e-001
 -1.0726444e-001
 -1.0505546e-001
 -1.0401603e-001
 -1.2147760e-001
 -1.2351569e-001
 -1.1388608e-001
 -1.2369494e-001
 -1.1122204e-001
 -9.4138668e-002
 -9.9930299e-002
 -1.0536290e-001
 -1.2054924e-001
 -1.0658051e-001
 -1.0731228e-001
 -9.8835621e-002
 -9.1832816e-002
 -1.0842575e-001
 -1.1350505e-001
 -1.2298000e-001
 -1.2128463e-001
 -1.1208219e-001
 -1.0649497e-001
 -1.0744482e-001
 -1.0997767e-001
 -1.1049404e-001
 -1.0362574e-001
 -1.0002432e-001
 -1.0923449e-001
 -1.1156095e-001
 -1.3362973e-001
 -1.4756721e-001
 -1.2901417e-001
 -8.4605910e-002
 -7.0747026e-002
 -6.6080582e-002
 -6.2352283e-002
 -6.3730477e-002
 -4.8759577e-002
 -1.5588801e-002
  3.9588879e-002
  5.9873515e-002
  4.8762768e-002
  1.7104096e-002
  3.5407550e-004
 -1.8771928e-002
 -3.5489530e-002
 -6.0631248e-002
 -8.5882971e-002
 -1.1140933e-001
 -1.4097051e-001
 -1.8661716e-001
 -2.1891757e-001
 -2.2533393e-001
 -2.1654011e-001
 -2.0768254e-001
 -2.1521823e-001
 -2.1989942e-001
 -2.4733900e-001
 -2.5504440e-001
 -2.4451729e-001
 -2.3894634e-001
 -2.5983902e-001
 -2.7543175e-001
 -2.1679405e-001
 -7.0110435e-002
  1.7453318e-001
  5.6588882e-001
  1.0445167e+000
  1.4531227e+000
  1.5548340e+000
  1.2171725e+000
  6.1870948e-001
  6.4010325e-002
 -2.0735629e-001
 -2.6275242e-001
 -2.2881261e-001
 -2.2191848e-001
 -2.4579570e-001
 -2.8763840e-001
 -3.2136899e-001
 -3.1824749e-001
 -3.0931253e-001
 -3.2853355e-001
 -3.4279995e-001
 -3.4894318e-001
 -3.3954690e-001
 -3.2335787e-001
 -3.0578592e-001
 -3.0746938e-001
 -3.3045310e-001
 -3.3539859e-001
 -3.3807077e-001
 -3.2451137e-001
 -3.0391786e-001
 -3.0299421e-001
 -3.0628645e-001
 -3.1730317e-001
 -3.3226522e-001
 -3.2134355e-001
 -3.0392529e-001
 -2.7862540e-001
 -2.6594496e-001
 -2.6768502e-001
 -2.8967621e-001
 -3.0249835e-001
 -2.8331824e-001
 -2.6329771e-001
 -2.5192553e-001
 -2.4455273e-001
 -2.4197854e-001
 -2.4252126e-001
 -2.4576412e-001
 -2.3393466e-001
 -2.0885720e-001
 -2.0744121e-001
 -2.1285655e-001
 -2.1509711e-001
 -2.1030697e-001
 -2.1970776e-001
 -2.1780209e-001
 -2.0594018e-001
 -1.8879927e-001
 -1.9491690e-001
 -1.9364128e-001
 -1.7884444e-001
 -1.6950662e-001
 -1.6425852e-001
 -1.5632740e-001
 -1.5268693e-001
 -1.6177812e-001
 -1.7095699e-001
 -1.8237052e-001
 -1.5578920e-001
 -1.4964704e-001
 -1.5929225e-001
 -1.6785130e-001
 -1.7896282e-001
 -1.9697046e-001
 -1.9926008e-001
 -1.9110104e-001
 -1.6618583e-001
 -1.6383420e-001
 -1.8356447e-001
 -1.9163775e-001
 -1.8173928e-001
 -1.9577529e-001
 -1.8740645e-001
 -1.7974747e-001
 -1.8186061e-001
 -1.7771307e-001
 -1.8333666e-001
 -1.9779312e-001
 -1.9019253e-001
 -1.7347257e-001
 -1.6935987e-001
 -1.6640430e-001
 -1.7180506e-001
 -1.8357906e-001
 -1.8087156e-001
 -1.8266289e-001
 -1.8078772e-001
 -1.7350176e-001
 -1.7776283e-001
 -1.7888028e-001
 -1.7081078e-001
 -1.8151854e-001
 -1.9312364e-001
 -1.9758913e-001
 -1.9768269e-001
 -1.8411155e-001
 -1.8262627e-001
 -1.5984677e-001
 -1.3435269e-001
 -1.1109380e-001
 -9.9569098e-002
 -8.7163342e-002
 -8.9255910e-002
 -6.9689023e-002
 -2.1025480e-002
  7.7717263e-003
 -9.0222819e-003
 -3.5349161e-002
 -3.9241722e-002
 -5.8946515e-002
 -8.8949061e-002
 -1.0935085e-001
 -1.4402679e-001
 -1.7150143e-001
 -2.0041003e-001
 -2.3416297e-001
 -2.6721347e-001
 -2.7883899e-001
 -2.6492670e-001
 -2.5083917e-001
 -2.5678565e-001
 -2.6670230e-001
 -2.8829017e-001
 -2.9397579e-001
 -3.0885831e-001
 -3.2277987e-001
 -2.8977860e-001
 -1.8917041e-001
  1.9073773e-002
  3.4678511e-001
  7.8796738e-001
  1.2334561e+000
  1.4663724e+000
  1.2493469e+000
  6.8804743e-001
  1.1685260e-001
 -2.4553706e-001
 -3.4702186e-001
 -3.0324823e-001
 -2.5248795e-001
 -2.6191464e-001
 -2.9646705e-001
 -3.3946940e-001
 -3.6635243e-001
 -3.5583292e-001
 -3.4693002e-001
 -3.6029591e-001
 -3.4724865e-001
 -3.5660664e-001
 -3.6444699e-001
 -3.7136157e-001
 -3.6572595e-001
 -3.5671707e-001
 -3.4804113e-001
 -3.3701370e-001
 -3.3243973e-001
 -3.4450714e-001
 -3.4728920e-001
 -3.3649426e-001
 -3.4054017e-001
 -3.3029425e-001
 -3.2190804e-001
 -3.2768841e-001
 -3.3277725e-001
 -3.1717128e-001
 -3.1007520e-001
 -2.9235650e-001
 -2.9474437e-001
 -2.8818398e-001
 -2.8350526e-001
 -2.8960761e-001
 -2.7085763e-001
 -2.4735333e-001
 -2.3459592e-001
 -2.3657799e-001
 -2.4279663e-001
 -2.4000633e-001
 -2.3089882e-001
 -2.2887400e-001
 -2.2442126e-001
 -2.2785664e-001
 -2.2751227e-001
 -2.3970414e-001
 -2.3305834e-001
 -2.0822955e-001
 -1.8311595e-001
 -1.5649241e-001
 -1.3733434e-001
 -1.4981660e-001
 -1.6829349e-001
 -1.7677339e-001
 -1.7050884e-001
 -1.6380712e-001
 -1.5623157e-001
 -1.6130689e-001
 -1.7870953e-001
 -2.0190131e-001
 -2.0705043e-001
 -2.0784924e-001
 -1.9648650e-001
 -1.8015120e-001
 -1.8001033e-001
 -1.9330669e-001
 -2.1696534e-001
 -2.1433281e-001
 -2.0217127e-001
 -1.8893873e-001
 -1.8240231e-001
 -1.7602998e-001
 -1.8842662e-001
 -2.0598024e-001
 -1.9843894e-001
 -1.9082572e-001
 -1.8580246e-001
 -1.7285976e-001
 -1.6673808e-001
 -1.8270170e-001
 -2.0540245e-001
 -1.9602911e-001
 -1.8972894e-001
 -1.8151554e-001
 -1.8673372e-001
 -1.9369317e-001
 -2.0008009e-001
 -2.0255453e-001
 -1.9010804e-001
 -1.7070436e-001
 -1.8971643e-001
 -1.8464574e-001
 -1.7304072e-001
 -1.6686472e-001
 -1.6688293e-001
 -1.2926147e-001
 -1.0941579e-001
 -1.1565019e-001
 -1.0841950e-001
 -7.5316010e-002
 -3.5065369e-002
 -9.7598330e-003
 -3.3603934e-003
 -9.5761034e-003
 -2.2741835e-002
 -5.0061345e-002
 -8.9759001e-002
 -1.3449632e-001
 -1.5766859e-001
 -1.6348611e-001
 -1.8726250e-001
 -2.2238689e-001
 -2.3190332e-001
 -2.5923379e-001
 -2.6450656e-001
 -2.5316654e-001
 -2.4527326e-001
 -2.4233682e-001
 -2.5325746e-001
 -2.6893043e-001
 -2.9309932e-001
 -3.1193488e-001
 -2.4733084e-001
 -8.6046392e-002
  2.2224248e-001
  6.2592670e-001
  1.0742260e+000
  1.4125166e+000
  1.3915039e+000
  9.6864713e-001
  3.6582352e-001
 -1.0233839e-001
 -3.3775827e-001
 -3.4922364e-001
 -2.7309583e-001
 -2.3602005e-001
 -2.5440632e-001
 -3.0699895e-001
 -3.2119162e-001
 -3.1998142e-001
 -3.1372885e-001
 -3.2028924e-001
 -3.3062248e-001
 -3.2500750e-001
 -3.1995295e-001
 -3.1222999e-001
 -3.1353514e-001
 -3.1741996e-001
 -3.1484181e-001
 -3.0775551e-001
 -3.0009338e-001
 -2.9949124e-001
 -2.9693114e-001
 -2.9436503e-001
 -2.9027016e-001
 -2.8969306e-001
 -2.8180218e-001
 -2.6497891e-001
 -2.5788864e-001
 -2.4911230e-001
 -2.5974788e-001
 -2.5192430e-001
 -2.3873458e-001
 -2.2612309e-001
 -2.1981061e-001
 -2.1356071e-001
 -2.1411682e-001
 -2.0230311e-001
 -2.0172972e-001
 -1.9601519e-001
 -1.8495932e-001
 -1.8769200e-001
 -1.8953426e-001
 -1.9441689e-001
 -1.8896240e-001
 -1.8089817e-001
 -1.6202084e-001
 -1.4624954e-001
 -1.3804764e-001
 -1.2268288e-001
 -1.1091115e-001
 -9.3740471e-002
 -7.8958969e-002
 -7.8098322e-002
 -9.3709874e-002
 -1.0765433e-001
 -1.2277308e-001
 -1.1876145e-001
 -1.1762322e-001
 -9.6947859e-002
 -1.0387971e-001
 -1.1821890e-001
 -1.2959714e-001
 -1.4295739e-001
 -1.3372805e-001
 -1.0783965e-001
 -9.8732994e-002
 -1.0326222e-001
 -1.0324698e-001
 -1.1811636e-001
 -1.2749411e-001
 -1.2476012e-001
 -9.6982847e-002
 -8.2996736e-002
 -8.1038797e-002
 -1.0668614e-001
 -1.1404104e-001
 -1.0740128e-001
 -9.1533173e-002
 -7.3781763e-002
 -6.7123561e-002
 -7.4238968e-002
 -9.6061055e-002
 -1.0747755e-001
 -1.2370373e-001
 -1.1226868e-001
 -8.5915065e-002
 -9.7005363e-002
 -1.0348864e-001
 -1.0816023e-001
 -9.3269710e-002
 -6.8915412e-002
 -3.9109336e-002
 -2.2464218e-002
 -1.3319320e-002
 -1.4755697e-002
 -1.0608495e-002
  3.1076587e-002
  4.8614996e-002
  4.6427392e-002
  5.1213655e-002
  6.2361189e-002
  4.9275724e-002
  1.8322528e-002
 -2.1800671e-002
 -5.8591346e-002
 -9.3376524e-002
 -1.2496829e-001
 -1.5718846e-001
 -1.7395483e-001
 -1.8937761e-001
 -1.7239163e-001
 -1.7732367e-001
 -1.8308220e-001
 -1.7417225e-001
 -1.8869729e-001
 -2.0601468e-001
 -2.0536920e-001
 -1.9293361e-001
 -1.9799834e-001
 -1.7429739e-001
 -4.7221853e-002
  1.8879351e-001
  5.3403673e-001
  9.8301849e-001
  1.4137310e+000
  1.5844280e+000
  1.3470195e+000
  8.2427212e-001
  2.6986177e-001
 -1.1638703e-001
 -2.5525259e-001
 -2.4299085e-001
 -1.6996536e-001
 -1.7573298e-001
 -2.2919446e-001
 -2.9969437e-001
 -3.2045857e-001
 -3.0980455e-001
 -2.8115760e-001
 -2.6778561e-001
 -2.8441642e-001
 -3.0342193e-001
 -3.0852238e-001
 -3.1568397e-001
 -3.0775154e-001
 -3.0002659e-001
 -3.0493885e-001
 -2.8753938e-001
 -2.9442308e-001
 -3.0858131e-001
 -3.1220142e-001
 -3.0838591e-001
 -2.9719446e-001
 -2.9309209e-001
 -2.9154661e-001
 -2.9451368e-001
 -2.9817067e-001
 -2.8699077e-001
 -2.8278039e-001
 -2.6088930e-001
 -2.5089010e-001
 -2.5571569e-001
 -2.6376024e-001
 -2.5732702e-001
 -2.3572481e-001
 -2.2687509e-001
 -2.2205126e-001
 -2.4081900e-001
 -2.3348256e-001
 -2.1935399e-001
 -2.1599004e-001
 -2.1831189e-001
 -2.1556185e-001
 -2.0788485e-001
 -2.2366170e-001
 -2.1430494e-001
 -1.9205737e-001
 -1.7510905e-001
 -1.6232456e-001
 -1.6212105e-001
 -1.7065789e-001
 -1.8085327e-001
 -1.8560838e-001
 -1.6481320e-001
 -1.6009677e-001
 -1.8176573e-001
 -1.9161109e-001
 -1.9923297e-001
 -2.1217075e-001
 -2.1052464e-001
 -1.9940898e-001
 -1.8165999e-001
 -1.8196401e-001
 -1.9487488e-001
 -2.1845633e-001
 -2.2471107e-001
 -2.2858709e-001
 -2.1461425e-001
 -1.8889881e-001
 -1.8289064e-001
 -1.9553842e-001
 -2.1870170e-001
 -2.2349282e-001
 -2.1101765e-001
 -2.0004521e-001
 -1.7434786e-001
 -1.8048601e-001
 -1.9499404e-001
 -2.1687925e-001
 -2.2098507e-001
 -2.1623117e-001
 -2.1196282e-001
 -1.9343726e-001
 -1.9616748e-001
 -2.1762854e-001
 -2.2208963e-001
 -2.3444438e-001
 -2.2683391e-001
 -1.9962329e-001
 -1.8218534e-001
 -1.7932062e-001
 -1.7934022e-001
 -1.7183493e-001
 -1.6484846e-001
 -1.5442888e-001
 -1.2783310e-001
 -8.7190826e-002
 -4.9776633e-002
 -5.6823705e-002
 -7.1007011e-002
 -9.1319674e-002
 -9.1653629e-002
 -7.7594510e-002
 -1.0795468e-001
 -1.4873188e-001
 -2.0122403e-001
 -2.3898330e-001
 -2.5869256e-001
 -2.7474509e-001
 -2.7612544e-001
 -2.9192803e-001
 -3.0204606e-001
 -3.0522882e-001
 -3.2186821e-001
 -3.1701137e-001
 -3.1409576e-001
 -3.1213104e-001
 -3.3193036e-001
 -3.6205824e-001
 -3.5254452e-001
 -2.4779661e-001
 -4.6948395e-002
  2.6748691e-001
  6.8348663e-001
  1.1146120e+000
  1.4150319e+000
  1.3468011e+000
  9.2550180e-001
  3.8478979e-001
 -7.3665044e-002
 -3.2175689e-001
 -3.8221150e-001
 -3.4721974e-001
 -3.2581153e-001
 -3.4501630e-001
 -3.7445687e-001
 -3.9056134e-001
 -4.0863241e-001
 -4.2796663e-001
 -4.3005874e-001
 -4.1794967e-001
 -4.1327458e-001
 -4.0210694e-001
 -4.0886802e-001
 -4.1502511e-001
 -4.3318751e-001
 -4.3580239e-001
 -4.2076242e-001
 -4.1446101e-001
 -3.9423877e-001
 -3.8798326e-001
 -4.0391480e-001
 -4.2218233e-001
 -4.1835381e-001
 -4.0367454e-001
 -3.9569168e-001
 -3.8468772e-001
 -3.8636400e-001
 -3.8509278e-001
 -3.8442715e-001
 -3.8525961e-001
 -3.8209285e-001
 -3.7176567e-001
 -3.6011188e-001
 -3.5855229e-001
 -3.5406086e-001
 -3.4993234e-001
 -3.3590756e-001
 -3.3493092e-001
 -3.2443541e-001
 -3.2215707e-001
 -3.2592519e-001
 -3.3047864e-001
 -3.2840228e-001
 -3.0980218e-001
 -3.0627617e-001
 -3.0182219e-001
 -3.0539749e-001
 -3.0418388e-001
 -2.9369830e-001
 -2.6979993e-001
 -2.5882108e-001
 -2.5258425e-001
 -2.5633570e-001
 -2.7244688e-001
 -2.8771647e-001
 -2.8148377e-001
 -2.7626244e-001
 -2.7914158e-001
 -2.8647007e-001
 -2.9286772e-001
 -3.1412876e-001
 -3.0418925e-001
 -2.9447298e-001
 -2.9402044e-001
 -2.9939491e-001
 -2.9992304e-001
 -3.0015875e-001
 -3.1642300e-001
 -3.2580610e-001
 -3.0416828e-001
 -2.9148890e-001
 -2.8962586e-001
 -2.8599167e-001
 -3.0558772e-001
 -3.1690545e-001
 -3.2139133e-001
 -3.0334496e-001
 -2.9224331e-001
 -2.8649139e-001
 -2.9201553e-001
 -3.1578907e-001
 -3.1130203e-001
 -3.0646440e-001
 -2.9369624e-001
 -2.7769753e-001
 -2.8207505e-001
 -3.0422790e-001
 -3.1497828e-001
 -3.2008138e-001
 -3.0354383e-001
 -2.6707938e-001
 -2.3977536e-001
 -2.2888603e-001
 -2.2892219e-001
 -2.3966423e-001
 -2.1584361e-001
 -1.6134087e-001
 -1.2091984e-001
 -1.1838874e-001
 -1.4557598e-001
 -1.6673494e-001
 -2.0185100e-001
 -2.2914865e-001
 -2.4325032e-001
 -2.6212060e-001
 -2.9100397e-001
 -3.2576034e-001
 -3.6663755e-001
 -3.9840481e-001
 -3.9964785e-001
 -3.8601098e-001
 -3.7218209e-001
 -3.7205805e-001
 -3.8671484e-001
 -3.9984386e-001
 -4.1208533e-001
 -4.2125055e-001
 -4.3382486e-001
 -4.0315990e-001
 -2.7349640e-001
 -3.0557021e-002
  3.3570690e-001
  8.0374215e-001
  1.2199280e+000
  1.3339115e+000
  1.0159327e+000
  4.4286788e-001
 -8.7007536e-002
 -3.9134867e-001
 -4.4559250e-001
 -3.9246511e-001
 -3.4886660e-001
 -3.8712181e-001
 -4.4488801e-001
 -4.7690118e-001
 -4.7926089e-001
 -4.5410306e-001
 -4.4090908e-001
 -4.5957926e-001
 -4.6329120e-001
 -4.6818524e-001
 -4.8176701e-001
 -4.8323822e-001
 -4.8060647e-001
 -4.5344253e-001
 -4.5138156e-001
 -4.4470542e-001
 -4.5415932e-001
 -4.7889254e-001
 -4.6475648e-001
 -4.5634980e-001
 -4.4830660e-001
 -4.3873178e-001
 -4.3242629e-001
 -4.2851655e-001
 -4.3625677e-001
 -4.3600094e-001
 -4.2483754e-001
 -4.1639413e-001
 -4.1081595e-001
 -4.0204689e-001
 -3.9932153e-001
 -3.8854630e-001
 -3.7677384e-001
 -3.6397132e-001
 -3.6463612e-001
 -3.7526814e-001
 -3.6977758e-001
 -3.5306405e-001
 -3.4157541e-001
 -3.3610866e-001
 -3.3562702e-001
 -3.5106587e-001
 -3.6135933e-001
 -3.6176884e-001
 -3.6011297e-001
 -3.4189597e-001
 -3.1227271e-001
 -2.9402439e-001
 -2.8315112e-001
 -2.8891379e-001
 -2.9620744e-001
 -2.8228495e-001
 -2.9132930e-001
 -2.6469717e-001
 -2.6135371e-001
 -2.6851705e-001
 -2.9591257e-001
 -3.1405117e-001
 -3.0118834e-001
 -2.9612623e-001
 -2.8821579e-001
 -2.9637125e-001
 -3.0039422e-001
 -3.1960303e-001
 -3.2949251e-001
 -3.2444303e-001
 -3.2286294e-001
 -3.0201140e-001
 -2.8663797e-001
 -2.9787633e-001
 -3.1123727e-001
 -2.9978718e-001
 -2.9423960e-001
 -2.9244000e-001
 -2.9599053e-001
 -2.8393524e-001
 -2.9769991e-001
 -2.9748073e-001
 -2.8622763e-001
 -2.8773499e-001
 -2.8741666e-001
 -2.8470275e-001
 -2.9551327e-001
 -2.9889130e-001
 -2.9870042e-001
 -2.9596448e-001
 -2.7493400e-001
 -2.7709214e-001
 -2.7632160e-001
 -2.9259632e-001
 -2.7665845e-001
 -2.5460988e-001
 -2.3603873e-001
 -2.1450515e-001
 -1.9941589e-001
 -1.9147229e-001
 -1.8482952e-001
 -1.4399980e-001
 -1.0584662e-001
 -1.0348570e-001
 -1.1426921e-001
 -1.2034490e-001
 -1.4997521e-001
 -1.8721329e-001
 -2.2251812e-001
 -2.4504569e-001
 -2.5372091e-001
 -2.8263217e-001
 -3.1575610e-001
 -3.3756898e-001
 -3.5629321e-001
 -3.5481425e-001
 -3.4955183e-001
 -3.2797987e-001
 -3.2904651e-001
 -3.5127575e-001
 -3.7704062e-001
 -3.9202287e-001
 -3.9137533e-001
 -3.0608388e-001
 -1.2487828e-001
  2.0178019e-001
  6.3718409e-001
  1.0972630e+000
  1.3970432e+000
  1.2815793e+000
  8.2532609e-001
  2.3083996e-001
 -2.0175008e-001
 -4.0358129e-001
 -4.1626220e-001
 -3.6661006e-001
 -3.2412819e-001
 -3.4295453e-001
 -3.7552047e-001
 -4.0562968e-001
 -4.2003706e-001
 -4.2378582e-001
 -4.0945663e-001
 -4.1225379e-001
 -3.9537215e-001
 -3.9787398e-001
 -3.9632675e-001
 -4.0925882e-001
 -4.0857366e-001
 -4.1464785e-001
 -4.1143592e-001
 -3.8194616e-001
 -3.8473353e-001
 -3.8901526e-001
 -3.8411835e-001
 -3.9553493e-001
 -3.9235930e-001
 -3.7757228e-001
 -3.6627396e-001
 -3.8001835e-001
 -3.8598809e-001
 -3.6641962e-001
 -3.5840553e-001
 -3.3083669e-001
 -3.1472992e-001
 -3.1756482e-001
 -3.3340088e-001
 -3.3446894e-001
 -3.1867894e-001
 -3.0678646e-001
 -2.9130451e-001
 -2.7868117e-001
 -2.9410537e-001
 -3.0059689e-001
 -2.9938291e-001
 -2.8329950e-001
 -2.8150442e-001
 -2.6937225e-001
 -2.7167828e-001
 -2.7222021e-001
 -2.7741572e-001
 -2.6123556e-001
 -2.2792905e-001
 -2.0128547e-001
 -1.7421579e-001
 -1.7287199e-001
 -2.0014696e-001
 -2.1340327e-001
 -1.9870315e-001
 -1.8856516e-001
 -1.9156459e-001
 -1.8553129e-001
 -1.9804094e-001
 -2.1878825e-001
 -2.3554892e-001
 -2.3539677e-001
 -2.2796863e-001
 -2.1843311e-001
 -2.0656283e-001
 -2.0610291e-001
 -2.1354878e-001
 -2.2603498e-001
 -2.2178401e-001
 -2.0456994e-001
 -2.0051146e-001
 -2.0451960e-001
 -2.1115057e-001
 -2.1605537e-001
 -2.0710235e-001
 -2.0217902e-001
 -2.0963348e-001
 -2.1341858e-001
 -2.0702500e-001
 -2.1186213e-001
 -2.0941676e-001
 -2.0037224e-001
 -1.9524200e-001
 -1.9609772e-001
 -1.9591846e-001
 -2.1142935e-001
 -2.1766937e-001
 -2.2579556e-001
 -2.1315972e-001
 -1.9232681e-001
 -1.8968518e-001
 -2.0568454e-001
 -2.1149889e-001
 -2.1923209e-001
 -2.0934249e-001
 -1.7981757e-001
 -1.5624767e-001
 -1.3387600e-001
 -1.3374530e-001
 -1.1050469e-001
 -8.4227304e-002
 -7.6893997e-002
 -7.3347220e-002
 -6.7570194e-002
 -6.3636289e-002
 -8.0147639e-002
 -1.0364055e-001
 -1.5454765e-001
 -1.9344290e-001
 -2.2575008e-001
 -2.3945876e-001
 -2.6353164e-001
 -2.8556739e-001
 -3.0360234e-001
 -3.2137267e-001
 -3.1279966e-001
 -3.0528129e-001
 -3.1023714e-001
 -3.1332774e-001
 -3.2754457e-001
 -3.5359174e-001
 -3.7509179e-001
 -3.3555212e-001
 -1.8817952e-001
  6.2092206e-002
  4.3568275e-001
  8.8823846e-001
  1.2897920e+000
  1.4578903e+000
  1.2348672e+000
  6.8163923e-001
  9.2207310e-002
 -2.7084719e-001
 -3.9541910e-001
 -3.6946973e-001
 -3.1838926e-001
 -3.1860034e-001
 -3.6347932e-001
 -4.2619696e-001
 -4.3959701e-001
 -4.3898911e-001
 -4.3385318e-001
 -4.4002423e-001
 -4.2385752e-001
 -4.2131518e-001
 -4.3592855e-001
 -4.4338041e-001
 -4.6075480e-001
 -4.6450638e-001
 -4.4858783e-001
 -4.2486274e-001
 -4.2155645e-001
 -4.4767497e-001
 -4.5802847e-001
 -4.6350839e-001
 -4.5541791e-001
 -4.3054128e-001
 -4.1791964e-001
 -4.1398102e-001
 -4.1435815e-001
 -4.2343819e-001
 -4.3326639e-001
 -4.2292845e-001
 -4.0190312e-001
 -3.9039339e-001
 -3.9222375e-001
 -3.8454589e-001
 -3.9153634e-001
 -3.8357735e-001
 -3.7653204e-001
 -3.6140656e-001
 -3.5716767e-001
 -3.5843950e-001
 -3.5157720e-001
 -3.7087095e-001
 -3.6819319e-001
 -3.6198955e-001
 -3.5489301e-001
 -3.5831030e-001
 -3.6449652e-001
 -3.6238938e-001
 -3.3978252e-001
 -3.1272644e-001
 -2.8544508e-001
 -2.9667108e-001
 -3.0431962e-001
 -3.1619004e-001
 -3.2424466e-001
 -3.2517883e-001
 -3.1900201e-001
 -3.1743591e-001
 -3.3268084e-001
 -3.4647050e-001
 -3.6375880e-001
 -3.6695305e-001
 -3.4803990e-001
 -3.3531458e-001
 -3.3496835e-001
 -3.4602266e-001
 -3.5372792e-001
 -3.7605740e-001
 -3.7490940e-001
 -3.6149900e-001
 -3.4330399e-001
 -3.3839161e-001
 -3.3587386e-001
 -3.4973087e-001
 -3.6680149e-001
 -3.6251596e-001
 -3.5268845e-001
 -3.4592887e-001
 -3.3971849e-001
 -3.4076030e-001
 -3.6068810e-001
 -3.6687860e-001
 -3.5922330e-001
 -3.5023607e-001
 -3.3986736e-001
 -3.3794975e-001
 -3.4719269e-001
 -3.6431385e-001
 -3.7507184e-001
 -3.6190928e-001
 -3.4149120e-001
 -3.0940991e-001
 -2.9408863e-001
 -2.9028010e-001
 -2.9065741e-001
 -2.6578311e-001
 -2.3277718e-001
 -1.9786738e-001
 -1.8646040e-001
 -1.9714012e-001
 -2.1411782e-001
 -2.1608060e-001
 -2.1883608e-001
 -2.4496879e-001
 -2.9291901e-001
 -3.3515147e-001
 -3.5945317e-001
 -3.9764254e-001
 -4.1466841e-001
 -4.2247563e-001
 -4.3173687e-001
 -4.4130155e-001
 -4.5177677e-001
 -4.6691355e-001
 -4.7939972e-001
 -4.6174857e-001
 -4.6966826e-001
 -4.7611760e-001
 -5.0279478e-001
 -4.6168278e-001
 -3.5821427e-001
 -1.4562960e-001
  2.5856082e-001
  7.3874725e-001
  1.1667736e+000
  1.3376422e+000
  1.0826153e+000
  5.0455925e-001
 -7.3272856e-002
 -4.0851693e-001
 -4.9310689e-001
 -4.6174578e-001
 -4.3995253e-001
 -4.8096271e-001
 -5.3716781e-001
 -5.6425784e-001
 -5.6631211e-001
 -5.4007789e-001
 -5.4091849e-001
 -5.4122955e-001
 -5.5927009e-001
 -5.8163671e-001
 -5.7361754e-001
 -5.6078364e-001
 -5.4042611e-001
 -5.4134530e-001
 -5.4367563e-001
 -5.5505322e-001
 -5.6893246e-001
 -5.5714199e-001
 -5.3365909e-001
 -5.3879499e-001
 -5.3142948e-001
 -5.2568906e-001
 -5.3829904e-001
 -5.4160579e-001
 -5.2739928e-001
 -5.1254647e-001
 -5.0669524e-001
 -4.9704689e-001
 -4.9171966e-001
 -4.9525119e-001
 -4.9186207e-001
 -4.8927634e-001
 -4.6955266e-001
 -4.6104914e-001
 -4.6155723e-001
 -4.6067117e-001
 -4.5473371e-001
 -4.4671685e-001
 -4.4158596e-001
 -4.3321550e-001
 -4.3746358e-001
 -4.4987210e-001
 -4.6303180e-001
 -4.6109537e-001
 -4.2260374e-001
 -4.0899589e-001
 -3.9491572e-001
 -3.9748384e-001
 -4.0278503e-001
 -4.1124224e-001
 -3.9862267e-001
 -3.9498827e-001
 -3.9056827e-001
 -3.9481819e-001
 -4.0765538e-001
 -4.3658882e-001
 -4.2155376e-001
 -4.1100808e-001
 -4.1794742e-001
 -4.0958717e-001
 -4.2835539e-001
 -4.4251402e-001
 -4.3966144e-001
 -4.2881380e-001
 -4.1625931e-001
 -3.9786414e-001
 -4.0089057e-001
 -4.2687839e-001
 -4.4104065e-001
 -4.4234404e-001
 -4.2347265e-001
 -4.1730476e-001
 -4.1047814e-001
 -4.1383003e-001
 -4.2071228e-001
 -4.2350295e-001
 -4.2802901e-001
 -4.2333218e-001
 -3.9758951e-001
 -3.9009090e-001
 -3.9673864e-001
 -4.1954223e-001
 -4.3352651e-001
 -4.4028261e-001
 -4.2319937e-001
 -3.9395435e-001
 -3.7185132e-001
 -3.6988645e-001
 -3.6097431e-001
 -3.5245925e-001
 -3.3609542e-001
 -3.1126180e-001
 -2.6289014e-001
 -2.3275671e-001
 -2.2550689e-001
 -2.6279140e-001
 -2.7401392e-001
 -2.6910526e-001
 -2.7504426e-001
 -3.0378556e-001
 -3.5585535e-001
 -3.9642614e-001
 -4.3665947e-001
 -4.6507926e-001
 -4.6965218e-001
 -4.7093000e-001
 -4.6499256e-001
 -4.7327874e-001
 -4.8800608e-001
 -5.0536026e-001
 -5.0306473e-001
 -4.9255561e-001
 -5.0148908e-001
 -5.0894738e-001
 -4.7787194e-001
 -3.5484643e-001
 -1.0325716e-001
  3.1106877e-001
  8.3708376e-001
  1.2472946e+000
  1.2908169e+000
  8.9742252e-001
  2.5740714e-001
 -2.7913692e-001
 -5.3357112e-001
 -5.6157998e-001
 -5.0058945e-001
 -4.7328618e-001
 -5.0746989e-001
 -5.5763031e-001
 -5.6686166e-001
 -5.5292097e-001
 -5.4895730e-001
 -5.5634656e-001
 -5.6226231e-001
 -5.8575682e-001
 -5.7779176e-001
 -5.5878021e-001
 -5.5109666e-001
 -5.5706615e-001
 -5.6054850e-001
 -5.7589771e-001
 -5.6265729e-001
 -5.4411858e-001
 -5.3581968e-001
 -5.1722012e-001
 -5.2421531e-001
 -5.2383063e-001
 -5.2871290e-001
 -5.4419375e-001
 -5.2430422e-001
 -4.9528946e-001
 -4.9007913e-001
 -4.8598730e-001
 -4.8142228e-001
 -4.9302383e-001
 -4.8952229e-001
 -4.6622632e-001
 -4.4582259e-001
 -4.3883390e-001
 -4.3066999e-001
 -4.3326674e-001
 -4.4882846e-001
 -4.5644887e-001
 -4.2632366e-001
 -4.1019867e-001
 -4.0572726e-001
 -4.1166683e-001
 -4.3086365e-001
 -4.5414767e-001
 -4.3100689e-001
 -3.9142945e-001
 -3.6095996e-001
 -3.5415793e-001
 -3.4691239e-001
 -3.6236136e-001
 -3.6593120e-001
 -3.4485902e-001
 -3.3648705e-001
 -3.2709557e-001
 -3.3115522e-001
 -3.4219405e-001
 -3.6395124e-001
 -3.7526251e-001
 -3.6666993e-001
 -3.6740224e-001
 -3.7133738e-001
 -3.7978721e-001
 -3.7325118e-001
 -3.7930824e-001
 -3.6709113e-001
 -3.5166876e-001
 -3.6194948e-001
 -3.6124070e-001
 -3.5595889e-001
 -3.5922211e-001
 -3.5921771e-001
 -3.5420000e-001
 -3.4000602e-001
 -3.4550234e-001
 -3.5123108e-001
 -3.5768428e-001
 -3.5467423e-001
 -3.4891573e-001
 -3.3489312e-001
 -3.2769019e-001
 -3.3821230e-001
 -3.4043367e-001
 -3.3883273e-001
 -3.4764106e-001
 -3.4164382e-001
 -3.2214062e-001
 -3.2251010e-001
 -3.4138648e-001
 -3.3800230e-001
 -3.2658439e-001
 -3.0846488e-001
 -2.8913401e-001
 -2.5185622e-001
 -2.4489363e-001
 -2.2319336e-001
 -1.9219572e-001
 -1.7863490e-001
 -1.7016543e-001
 -1.6789167e-001
 -1.6785229e-001
 -1.5432781e-001
 -1.7020168e-001
 -2.1207273e-001
 -2.5729422e-001
 -2.9759547e-001
 -3.1505713e-001
 -3.3812447e-001
 -3.4864248e-001
 -3.6645267e-001
 -3.8759991e-001
 -3.9724400e-001
 -4.0824599e-001
 -3.8056689e-001
 -3.8462872e-001
 -3.8266955e-001
 -3.7483134e-001
 -3.9765733e-001
 -4.2946650e-001
 -3.9583136e-001
 -2.5192705e-001
  2.4001141e-002
  4.2111507e-001
  8.7938250e-001
  1.2803499e+000
  1.4104298e+000
  1.1664191e+000
  6.1701821e-001
  3.5470653e-002
 -3.2440063e-001
 -4.6802546e-001
 -4.3265924e-001
 -3.6526798e-001
 -3.3988807e-001
 -3.8468155e-001
 -4.4605130e-001
 -4.8236625e-001
 -4.8203161e-001
 -4.8150817e-001
 -4.5184032e-001
 -4.4013848e-001
 -4.4504394e-001
 -4.5679433e-001
 -4.6958068e-001
 -4.7327393e-001
 -4.6099489e-001
 -4.4743581e-001
 -4.3123362e-001
 -4.4532388e-001
 -4.5293575e-001
 -4.6761307e-001
 -4.5522170e-001
 -4.5292507e-001
 -4.3717908e-001
 -4.0723160e-001
 -4.1848358e-001
 -4.2514285e-001
 -4.2637420e-001
 -4.2272789e-001
 -4.1370413e-001
 -3.9524843e-001
 -3.8305303e-001
 -3.7839011e-001
 -3.9029456e-001
 -4.0418779e-001
 -3.9375481e-001
 -3.7484222e-001
 -3.6017813e-001
 -3.3796570e-001
 -3.3847451e-001
 -3.4452941e-001
 -3.5172427e-001
 -3.4980587e-001
 -3.5676456e-001
 -3.5583091e-001
 -3.4597791e-001
 -3.4058173e-001
 -3.3442883e-001
 -3.1652804e-001
 -3.1074702e-001
 -2.9439743e-001
 -2.7164095e-001
 -2.7309239e-001
 -2.8231513e-001
 -2.8664475e-001
 -2.7430979e-001
 -2.5594202e-001
 -2.5455147e-001
 -2.6504862e-001
 -2.8066585e-001
 -2.9089270e-001
 -2.9984130e-001
 -2.9889325e-001
 -2.7973146e-001
 -2.7827950e-001
 -2.7917161e-001
 -2.9864909e-001
 -3.1282098e-001
 -3.0871445e-001
 -2.9301852e-001
 -2.7227750e-001
 -2.6934257e-001
 -2.7013691e-001
 -2.8117249e-001
 -2.9949005e-001
 -3.0989981e-001
 -2.9089135e-001
 -2.6719626e-001
 -2.6146387e-001
 -2.6293848e-001
 -2.6514120e-001
 -2.8724048e-001
 -2.8808671e-001
 -2.6877069e-001
 -2.6452168e-001
 -2.5751042e-001
 -2.6997650e-001
 -2.6219082e-001
 -2.6916593e-001
 -2.7745866e-001
 -2.7353543e-001
 -2.7002453e-001
 -2.7598703e-001
 -2.8717078e-001
 -2.7484066e-001
 -2.5988148e-001
 -2.3289731e-001
 -2.3034215e-001
 -2.2013558e-001
 -2.0756804e-001
 -2.0967537e-001
 -1.7571135e-001
 -1.2910784e-001
 -1.0549651e-001
 -1.0876393e-001
 -1.1938017e-001
 -1.3234098e-001
 -1.4925318e-001
 -1.5456837e-001
 -1.8571263e-001
 -2.0995953e-001
 -2.4183916e-001
 -2.7653729e-001
 -3.2631617e-001
 -3.6165272e-001
 -3.6519199e-001
 -3.4839875e-001
 -3.3769499e-001
 -3.6245314e-001
 -3.7078214e-001
 -3.9463865e-001
 -4.0707722e-001
 -4.1071395e-001
 -4.1916260e-001
 -4.1571317e-001
 -3.7360736e-001
 -2.4066946e-001
 -1.3321641e-002
  3.6686973e-001
  8.4645266e-001
  1.2901607e+000
  1.4911540e+000
  1.2852688e+000
  7.5595977e-001
  1.5564221e-001
 -2.3982234e-001
 -3.9109935e-001
 -3.9316208e-001
 -3.7476173e-001
 -3.7299895e-001
 -4.1022944e-001
 -4.5465487e-001
 -4.7439130e-001
 -4.6227942e-001
 -4.5920791e-001
 -4.6850826e-001
 -4.7890776e-001
 -4.8396787e-001
 -4.6887388e-001
 -4.7068141e-001
 -4.4878808e-001
 -4.5761772e-001
 -4.8018229e-001
 -4.6728229e-001
 -4.7566914e-001
 -4.6445194e-001
 -4.5740814e-001
 -4.4710447e-001
 -4.6331544e-001
 -4.7500047e-001
 -4.7784007e-001
 -4.6378614e-001
 -4.4111817e-001
 -4.2278589e-001
 -4.1034999e-001
 -4.2769024e-001
 -4.4070739e-001
 -4.3883945e-001
 -4.3022239e-001
 -3.9938092e-001
 -3.7931117e-001
 -3.7828572e-001
 -3.8327636e-001
 -3.7787137e-001
 -3.9473446e-001
 -3.8378877e-001
 -3.5598568e-001
 -3.5523338e-001
 -3.5918211e-001
 -3.6844890e-001
 -3.8012702e-001
 -3.7824330e-001
 -3.4972863e-001
 -3.3174757e-001
 -3.1737647e-001
 -2.9439778e-001
 -3.0369538e-001
 -3.1090087e-001
 -3.1068172e-001
 -3.1346955e-001
 -3.1031643e-001
 -3.0693978e-001
 -3.1874235e-001
 -3.1810849e-001
 -3.3689651e-001
 -3.1901211e-001
 -3.1906638e-001
 -3.1751514e-001
 -3.2349043e-001
 -3.3395560e-001
 -3.4908524e-001
 -3.5184018e-001
 -3.3213218e-001
 -3.1646840e-001
 -3.1106548e-001
 -3.2000143e-001
 -3.4189306e-001
 -3.5158063e-001
 -3.2537701e-001
 -3.1064055e-001
 -3.0378389e-001
 -3.0861126e-001
 -3.1102384e-001
 -3.2619047e-001
 -3.4773771e-001
 -3.4560531e-001
 -3.1666267e-001
 -2.9678216e-001
 -3.0402538e-001
 -3.1448508e-001
 -3.2657355e-001
 -3.3548044e-001
 -3.2434713e-001
 -3.1031261e-001
 -2.9908402e-001
 -3.0245981e-001
 -3.0526539e-001
 -2.9818502e-001
 -2.8801810e-001
 -2.7238913e-001
 -2.3780587e-001
 -2.1397540e-001
 -2.0192689e-001
 -1.6530386e-001
 -1.5131333e-001
 -1.6666086e-001
 -1.6600388e-001
 -1.5867323e-001
 -1.7026734e-001
 -1.8631567e-001
 -2.2547974e-001
 -2.7471655e-001
 -3.0372449e-001
 -3.1433197e-001
 -3.6243776e-001
 -3.8594613e-001
 -3.9095454e-001
 -3.9397227e-001
 -4.0070208e-001
 -4.0560216e-001
 -4.0830928e-001
 -4.1438613e-001
 -4.1884428e-001
 -4.3561541e-001
 -4.5306643e-001
 -4.4096440e-001
 -3.5393509e-001
 -1.7801973e-001
  9.2037112e-002
  4.9239902e-001
  9.9372725e-001
  1.3614010e+000
  1.3519861e+000
  9.5094866e-001
  3.7121039e-001
 -1.4743832e-001
 -4.2070572e-001
 -4.6986444e-001
 -4.2403290e-001
 -3.8801699e-001
 -4.0749031e-001
 -4.4699317e-001
 -4.9485774e-001
 -5.1102669e-001
 -5.1999205e-001
 -5.1895286e-001
 -5.1135334e-001
 -5.0034511e-001
 -4.9230534e-001
 -4.9981136e-001
 -5.1232942e-001
 -5.1472861e-001
 -5.0532117e-001
 -5.1984516e-001
 -4.9738489e-001
 -4.7371820e-001
 -4.9081822e-001
 -5.0161264e-001
 -4.9962337e-001
 -4.8477550e-001
 -4.7215969e-001
 -4.5983819e-001
 -4.4479303e-001
 -4.5815837e-001
 -4.5893688e-001
 -4.5736117e-001
 -4.4061745e-001
 -4.3608122e-001
 -4.2612460e-001
 -4.2014842e-001
 -4.2405313e-001
 -4.1934865e-001
 -4.0628451e-001
 -3.9319767e-001
 -3.7886627e-001
 -3.8095081e-001
 -3.8619677e-001
 -3.9601623e-001
 -3.8893479e-001
 -3.8219517e-001
 -3.7379189e-001
 -3.7548122e-001
 -3.8043106e-001
 -3.7539082e-001
 -3.6061227e-001
 -3.4439169e-001
 -3.1805568e-001
 -3.0502599e-001
 -3.0003909e-001
 -3.1273370e-001
 -3.2095558e-001
 -3.0375435e-001
 -3.1160187e-001
 -3.0642482e-001
 -3.0775140e-001
 -3.3020398e-001
 -3.4605736e-001
 -3.4818630e-001
 -3.4411807e-001
 -3.3188431e-001
 -3.2711422e-001
 -3.2501743e-001
 -3.4451546e-001
 -3.4889066e-001
 -3.4636287e-001
 -3.4528389e-001
 -3.2651982e-001
 -3.1746148e-001
 -3.3503910e-001
 -3.3404609e-001
 -3.3693066e-001
 -3.5205770e-001
 -3.3381378e-001
 -3.2280888e-001
 -3.2144827e-001
 -3.2231813e-001
 -3.2542032e-001
 -3.3665052e-001
 -3.4976020e-001
 -3.2451921e-001
 -3.1358371e-001
 -3.2148041e-001
 -3.3597665e-001
 -3.3433846e-001
 -3.3346860e-001
 -3.0492717e-001
 -2.6684616e-001
 -2.3494661e-001
 -2.3204960e-001
 -2.2864719e-001
 -2.1434897e-001
 -1.7272960e-001
 -1.6647466e-001
 -1.5719512e-001
 -1.6414749e-001
 -1.7971348e-001
 -2.1766718e-001
 -2.5144918e-001
 -2.9568428e-001
 -3.1199066e-001
 -3.1879726e-001
 -3.3744687e-001
 -3.6605015e-001
 -3.9069531e-001
 -4.0635451e-001
 -4.1201609e-001
 -4.1105116e-001
 -3.8915137e-001
 -3.7949409e-001
 -3.9230426e-001
 -4.2235064e-001
 -4.5418579e-001
 -4.2647252e-001
 -3.0642556e-001
 -5.0808373e-002
  3.3091741e-001
  7.7731443e-001
  1.1768717e+000
  1.3220631e+000
  1.0580847e+000
  5.0342082e-001
 -2.1575711e-002
 -3.5560575e-001
 -4.5795416e-001
 -4.1326520e-001
 -3.7084426e-001
 -3.9779800e-001
 -4.4277890e-001
 -4.5540637e-001
 -4.7825614e-001
 -4.7961339e-001
 -4.6587145e-001
 -4.6923106e-001
 -4.6497681e-001
 -4.4429743e-001
 -4.5417426e-001
 -4.5558771e-001
 -4.6723876e-001
 -4.6686237e-001
 -4.4989633e-001
 -4.4457737e-001
 -4.3466432e-001
 -4.3464058e-001
 -4.4401215e-001
 -4.2859100e-001
 -4.2852074e-001
 -4.2690753e-001
 -4.2073337e-001
 -4.2390027e-001
 -4.3253343e-001
 -4.3304527e-001
 -4.1481870e-001
 -4.1477636e-001
 -3.9916604e-001
 -3.8300498e-001
 -3.8171175e-001
 -3.8415814e-001
 -3.9874974e-001
 -3.7804775e-001
 -3.6498266e-001
 -3.5009012e-001
 -3.4504316e-001
 -3.5522680e-001
 -3.8265055e-001
 -3.7473851e-001
 -3.5824818e-001
 -3.3927663e-001
 -3.2925639e-001
 -3.2141469e-001
 -3.4064637e-001
 -3.4941207e-001
 -3.3550609e-001
 -3.1384923e-001
 -2.9736177e-001
 -2.7306686e-001
 -2.5608351e-001
 -2.6383427e-001
 -2.8100645e-001
 -2.9130437e-001
 -3.0254886e-001
 -2.9959552e-001
 -2.8301526e-001
 -2.8234689e-001
 -2.9410891e-001
 -3.0937363e-001
 -3.1007311e-001
 -3.0642471e-001
 -2.9811067e-001
 -2.9166747e-001
 -2.9085865e-001
 -2.9666715e-001
 -3.0345177e-001
 -3.0302060e-001
 -2.9493171e-001
 -2.7359457e-001
 -2.9882828e-001
 -3.0459206e-001
 -3.0000274e-001
 -2.9869640e-001
 -2.9119776e-001
 -2.9168322e-001
 -2.8978152e-001
 -2.9486412e-001
 -2.9676042e-001
 -2.9515195e-001
 -2.8713634e-001
 -2.8943089e-001
 -2.9916758e-001
 -2.9857412e-001
 -2.9735545e-001
 -3.0055849e-001
 -2.8894789e-001
 -2.7416437e-001
 -2.6521125e-001
 -2.4923602e-001
 -2.3033225e-001
 -2.1332965e-001
 -2.0110146e-001
 -1.6996144e-001
 -1.4144096e-001
 -1.1570332e-001
 -1.1037336e-001
 -1.2994527e-001
 -1.4106371e-001
 -1.5087751e-001
 -1.7646317e-001
 -2.1781904e-001
 -2.4931248e-001
 -2.8246652e-001
 -3.1765564e-001
 -3.4814479e-001
 -3.6478130e-001
 -3.5275691e-001
 -3.4220184e-001
 -3.4320507e-001
 -3.5957588e-001
 -3.8154195e-001
 -3.8441163e-001
 -3.9426509e-001
 -4.0060663e-001
 -3.7843870e-001
 -2.9648063e-001
 -1.2033283e-001
  1.9810916e-001
  6.3931618e-001
  1.1189280e+000
  1.3911544e+000
  1.2613342e+000
  7.5754800e-001
  1.3885117e-001
 -3.0056326e-001
 -4.5488763e-001
 -4.3379109e-001
 -3.3834769e-001
 -3.2248336e-001
 -3.8624827e-001
 -4.2823354e-001
 -4.5383277e-001
 -4.6086987e-001
 -4.4303110e-001
 -4.3351811e-001
 -4.1703469e-001
 -4.2497753e-001
 -4.3578780e-001
 -4.4649047e-001
 -4.6182578e-001
 -4.5151714e-001
 -4.4261255e-001
 -4.2682137e-001
 -4.2694020e-001
 -4.2949705e-001
 -4.3726849e-001
 -4.3063175e-001
 -4.3548179e-001
 -4.1419353e-001
 -4.0665794e-001
 -4.2040487e-001
 -4.2626639e-001
 -4.0119084e-001
 -4.0424670e-001
 -3.9690106e-001
 -3.8062379e-001
 -3.8082915e-001
 -3.8063126e-001
 -3.7931521e-001
 -3.6133678e-001
 -3.5086247e-001
 -3.5265818e-001
 -3.4728819e-001
 -3.5310096e-001
 -3.6145531e-001
 -3.5564046e-001
 -3.3335317e-001
 -3.2513088e-001
 -3.2212019e-001
 -3.2681198e-001
 -3.3890373e-001
 -3.5235294e-001
 -3.3340379e-001
 -3.0479141e-001
 -2.7496153e-001
 -2.5401246e-001
 -2.6325732e-001
 -2.6010861e-001
 -2.7631347e-001
 -2.8296299e-001
 -2.8120572e-001
 -2.6496377e-001
 -2.6372739e-001
 -2.6632910e-001
 -2.8408690e-001
 -2.9696692e-001
 -2.8986017e-001
 -2.7190127e-001
 -2.6521964e-001
 -2.6984666e-001
 -3.0269601e-001
 -3.2147323e-001
 -3.1392540e-001
 -2.9367745e-001
 -2.7806543e-001
 -2.8306338e-001
 -2.8178532e-001
 -2.8264392e-001
 -2.9559537e-001
 -3.1218906e-001
 -2.8811581e-001
 -2.8228011e-001
 -2.8222520e-001
 -2.7470355e-001
 -2.7601999e-001
 -2.8747205e-001
 -2.9489624e-001
 -2.8671058e-001
 -2.8631124e-001
 -2.9835376e-001
 -2.8853513e-001
 -2.9183173e-001
 -2.8606958e-001
 -2.9065077e-001
 -2.7950357e-001
 -2.7244771e-001
 -2.8110535e-001
 -2.7241472e-001
 -2.5584169e-001
 -2.3937792e-001
 -2.1010389e-001
 -1.8795761e-001
 -1.8315925e-001
 -1.6576464e-001
 -1.3767342e-001
 -1.4050632e-001
 -1.4477448e-001
 -1.4329934e-001
 -1.3426402e-001
 -1.5866034e-001
 -2.1586614e-001
 -2.6069723e-001
 -2.8972624e-001
 -3.0835691e-001
 -3.0720125e-001
 -3.2035875e-001
 -3.5272741e-001
 -3.7065689e-001
 -3.7526568e-001
 -3.9432627e-001
 -3.9039523e-001
 -3.6248924e-001
 -3.5680021e-001
 -3.9441379e-001
 -4.3368398e-001
 -3.8932553e-001
 -2.0716693e-001
  1.5356845e-001
  6.6776202e-001
  1.1816573e+000
  1.3860065e+000
  1.0855141e+000
  4.4713417e-001
 -1.4793358e-001
 -4.2794612e-001
 -4.4842801e-001
 -3.8420108e-001
 -3.6707935e-001
 -4.2050267e-001
 -4.6034371e-001
 -4.6971357e-001
 -4.6838509e-001
 -4.3484016e-001
 -4.5498571e-001
 -4.7207628e-001
 -4.8011825e-001
 -4.7255061e-001
 -4.5773302e-001
 -4.4292523e-001
 -4.3625090e-001
 -4.5029863e-001
 -4.5783241e-001
 -4.5680869e-001
 -4.6779842e-001
 -4.3721359e-001
 -4.2518770e-001
 -4.2059263e-001
 -4.2616299e-001
 -4.4649181e-001
 -4.4642657e-001
 -4.2349907e-001
 -3.9583079e-001
 -3.9793994e-001
 -3.9685109e-001
 -3.8859975e-001
 -3.8827592e-001
 -3.7720755e-001
 -3.6210113e-001
 -3.6516635e-001
 -3.6544600e-001
 -3.6792967e-001
 -3.6180581e-001
 -3.5498682e-001
 -3.4362603e-001
 -3.2559757e-001
 -3.2625435e-001
 -3.4752479e-001
 -3.5290943e-001
 -3.5717305e-001
 -3.3601548e-001
 -3.1210595e-001
 -2.9589385e-001
 -2.8541217e-001
 -2.8280256e-001
 -2.8426120e-001
 -2.8565068e-001
 -2.7301194e-001
 -2.6155135e-001
 -2.4944254e-001
 -2.6018179e-001
 -2.8263886e-001
 -2.9761718e-001
 -3.0741842e-001
 -2.9936916e-001
 -2.8195475e-001
 -2.7506215e-001
 -2.7605748e-001
 -2.9865699e-001
 -3.1251182e-001
 -3.1994837e-001
 -3.2087348e-001
 -2.8447738e-001
 -2.6994901e-001
 -2.8613861e-001
 -2.9497418e-001
 -3.0855247e-001
 -3.0593832e-001
 -3.0011777e-001
 -2.8927343e-001
 -2.6509758e-001
 -2.6652473e-001
 -2.9206329e-001
 -2.8793429e-001
 -2.8765214e-001
 -2.8374163e-001
 -2.8714643e-001
 -2.8307652e-001
 -2.8250475e-001
 -2.9308115e-001
 -2.9197142e-001
 -2.9065554e-001
 -2.9161128e-001
 -2.7388730e-001
 -2.5477689e-001
 -2.5098272e-001
 -2.3682064e-001
 -2.0256067e-001
 -1.8900483e-001
 -1.7943518e-001
 -1.6441754e-001
 -1.4343922e-001
 -1.3202806e-001
 -1.1336949e-001
 -1.0883844e-001
 -1.1443782e-001
 -1.2487071e-001
 -1.4719899e-001
 -1.7968905e-001
 -2.1459758e-001
 -2.3719970e-001
 -2.5392177e-001
 -2.7200795e-001
 -2.9948631e-001
 -3.3909203e-001
 -3.3178894e-001
 -3.5805322e-001
 -3.5886844e-001
 -3.2814802e-001
 -3.1164411e-001
 -3.0986376e-001
 -3.2826976e-001
 -3.5886964e-001
 -3.9264897e-001
 -3.7992807e-001
 -2.6320517e-001
 -2.5578125e-002
  3.3891942e-001
  7.9886717e-001
  1.2085174e+000
  1.3737006e+000
  1.1403102e+000
  6.1693855e-001
  5.0958195e-002
 -2.9645977e-001
 -4.2657706e-001
 -3.8928566e-001
 -3.1741918e-001
 -3.0529449e-001
 -3.2784544e-001
 -3.7006200e-001
 -3.8482052e-001
 -3.8235702e-001
 -3.9305865e-001
 -4.0920999e-001
 -4.0015643e-001
 -3.8401384e-001
 -3.7683349e-001
 -3.8256641e-001
 -3.8082018e-001
 -3.8093502e-001
 -3.6654107e-001
 -3.5162795e-001
 -3.5406477e-001
 -3.5627524e-001
 -3.5842566e-001
 -3.6484518e-001
 -3.5811372e-001
 -3.4821743e-001
 -3.4084989e-001
 -3.4853352e-001
 -3.3596170e-001
 -3.3722389e-001
 -3.2703872e-001
 -3.0825401e-001
 -3.0020862e-001
 -2.9542657e-001
 -2.9332324e-001
 -2.8313884e-001
 -2.8693647e-001
 -2.7322304e-001
 -2.6151408e-001
 -2.6466362e-001
 -2.5978306e-001
 -2.5918302e-001
 -2.5605357e-001
 -2.6586665e-001
 -2.6690100e-001
 -2.5070301e-001
 -2.3432026e-001
 -2.3227265e-001
 -2.2840869e-001
 -2.1117926e-001
 -2.0477718e-001
 -1.7077799e-001
 -1.3891119e-001
 -1.3261321e-001
 -1.3479511e-001
 -1.3463736e-001
 -1.5735367e-001
 -1.7140470e-001
 -1.6536791e-001
 -1.5528471e-001
 -1.6151936e-001
 -1.6306549e-001
 -1.7730938e-001
 -1.8415155e-001
 -1.8705579e-001
 -1.5799602e-001
 -1.2787333e-001
 -1.3067269e-001
 -1.3960095e-001
 -1.5373582e-001
 -1.7151612e-001
 -1.6926855e-001
 -1.5457860e-001
 -1.4803370e-001
 -1.4318819e-001
 -1.2764742e-001
 -1.4574753e-001
 -1.5815566e-001
 -1.5478552e-001
 -1.3539732e-001
 -1.3801539e-001
 -1.2496757e-001
 -1.1883344e-001
 -1.3597499e-001
 -1.4815508e-001
 -1.2705306e-001
 -1.1956868e-001
 -1.4146640e-001
 -1.4514347e-001
 -1.5079816e-001
 -1.4856652e-001
 -1.2722664e-001
 -9.8827951e-002
 -7.1206099e-002
 -7.2325850e-002
 -7.1050263e-002
 -5.7877142e-002
 -2.4934748e-002
  1.3407163e-002
  5.6037972e-002
  5.8153528e-002
  3.2782581e-002
  1.6354585e-002
  1.9700934e-002
  8.1067806e-003
 -2.0321409e-002
 -5.4287969e-002
 -1.0162245e-001
 -1.4832417e-001
 -1.6916122e-001
 -1.8137498e-001
 -1.7009137e-001
 -1.7416243e-001
 -1.6679919e-001
 -1.7408885e-001
 -1.9889032e-001
 -1.9016889e-001
 -1.9489801e-001
 -2.1756511e-001
 -2.1477640e-001
 -1.5559858e-001
 -1.3937870e-002
  2.4204208e-001
  6.3120504e-001
  1.0877209e+000
  1.5034030e+000
  1.6395836e+000
  1.3647262e+000
  8.0863135e-001
  2.3366561e-001
 -1.3348733e-001
 -2.6493503e-001
 -2.2573680e-001
 -1.3966802e-001
 -1.4087624e-001
 -1.9528379e-001
 -2.3065482e-001
 -2.5593835e-001
 -2.5375295e-001
 -2.4203447e-001
 -2.1678523e-001
 -2.1962429e-001
 -2.3917231e-001
 -2.5092316e-001
 -2.4077950e-001
 -2.4398416e-001
 -2.1239225e-001
 -2.1758798e-001
 -2.1938202e-001
 -2.4772843e-001
 -2.6656195e-001
 -2.2682750e-001
 -2.1454785e-001
 -2.0057522e-001
 -2.1596525e-001
 -2.3108910e-001
 -2.3593762e-001
 -2.0816271e-001
 -2.0144870e-001
 -1.8560452e-001
 -1.7942205e-001
 -1.7045410e-001
 -1.9375481e-001
 -1.9593899e-001
 -1.9043498e-001
 -1.6530570e-001
 -1.4309084e-001
 -1.5475160e-001
 -1.5528253e-001
 -1.6008722e-001
 -1.5867710e-001
 -1.4961639e-001
 -1.3607046e-001
 -1.3814408e-001
 -1.3644547e-001
 -1.3742875e-001
 -1.5605271e-001
 -1.6034031e-001
 -1.3782888e-001
 -1.2437187e-001
 -1.1213645e-001
 -1.0433219e-001
 -8.9654141e-002
 -9.3269937e-002
 -8.6725736e-002
 -6.5804512e-002
 -7.8104577e-002
 -8.9551215e-002
 -8.7646507e-002
 -9.7111523e-002
 -1.0766531e-001
 -1.0819144e-001
 -9.1462472e-002
 -8.1237004e-002
 -1.1115682e-001
 -1.0512666e-001
 -1.1200355e-001
 -1.2465559e-001
 -1.1270640e-001
 -9.9386665e-002
 -9.8464616e-002
 -1.0960411e-001
 -1.0634482e-001
 -1.1427234e-001
 -1.1112587e-001
 -9.8869617e-002
 -1.0797069e-001
 -1.0557629e-001
 -9.3396695e-002
 -1.0283327e-001
 -1.0720231e-001
 -9.2851145e-002
 -7.3500202e-002
 -7.3065989e-002
 -8.7334397e-002
 -1.0279787e-001
 -1.0668507e-001
 -1.0036972e-001
 -8.5609580e-002
 -8.1484461e-002
 -7.8047145e-002
 -8.2338580e-002
 -8.8411336e-002
 -8.8481307e-002
 -5.7583279e-002
 -2.3761404e-002
  1.2806621e-002
  1.5274476e-002
  3.0878770e-002
  3.7861103e-002
  3.2471541e-002
  4.2131005e-002
  4.9122006e-002
  5.1081069e-002
  3.5691334e-002
 -1.1290199e-002
 -7.7315756e-002
 -1.1784391e-001
 -1.2079882e-001
 -1.3481750e-001
 -1.5020799e-001
 -1.5907941e-001
 -1.8497744e-001
 -2.0725381e-001
 -2.0609426e-001
 -1.9019882e-001
 -1.7728710e-001
 -1.8713458e-001
 -2.1871841e-001
 -2.5391006e-001
 -2.3691195e-001
 -1.0561584e-001
  1.1488015e-001
  4.7072934e-001
  9.2897326e-001
  1.3657041e+000
  1.5966955e+000
  1.4578725e+000
  9.4327008e-001
  3.3590335e-001
 -6.7178399e-002
 -2.2672118e-001
 -2.4146394e-001
 -2.2078301e-001
 -2.2171505e-001
 -2.6236256e-001
 -3.0289219e-001
 -3.2039443e-001
 -3.1487210e-001
 -3.1960178e-001
 -3.2607250e-001
 -3.2991229e-001
 -3.2936050e-001
 -3.2112075e-001
 -3.2934531e-001
 -3.3368882e-001
 -3.3652389e-001
 -3.2291350e-001
 -3.0692873e-001
 -3.0944435e-001
 -3.1131836e-001
 -3.1651460e-001
 -3.2090191e-001
 -3.1503483e-001
 -3.0486716e-001
 -2.8920860e-001
 -2.8407303e-001
 -2.7257613e-001
 -2.8783666e-001
 -2.9602208e-001
 -2.8102331e-001
 -2.7641430e-001
 -2.5509641e-001
 -2.5436719e-001
 -2.6146446e-001
 -2.7443997e-001
 -2.7083207e-001
 -2.5064188e-001
 -2.3220334e-001
 -2.1947030e-001
 -2.1115263e-001
 -2.0098534e-001
 -2.2142038e-001
 -2.3755327e-001
 -2.4820060e-001
 -2.1976925e-001
 -2.1543168e-001
 -2.1723500e-001
 -2.0912413e-001
 -2.1527936e-001
 -2.1425541e-001
 -1.9102662e-001
 -1.6189735e-001
 -1.5621913e-001
 -1.7169018e-001
 -1.8070821e-001
 -1.9107804e-001
 -1.9478584e-001
 -1.8571473e-001
 -1.8023676e-001
 -1.7659025e-001
 -1.8592791e-001
 -1.9582277e-001
 -2.0928464e-001
 -2.1763730e-001
 -2.1365570e-001
 -1.9272071e-001
 -1.9545641e-001
 -1.8385193e-001
 -1.9827787e-001
 -2.1204616e-001
 -2.0187366e-001
 -1.7077540e-001
 -1.7676245e-001
 -1.8642863e-001
 -1.8601675e-001
 -1.8238166e-001
 -1.8282547e-001
 -1.9064900e-001
 -1.6909971e-001
 -1.8166767e-001
 -1.9879040e-001
 -1.8692588e-001
 -1.9398499e-001
 -1.9001140e-001
 -1.7009107e-001
 -1.7222798e-001
 -1.7308654e-001
 -1.9362073e-001
 -2.0552187e-001
 -2.0454957e-001
 -1.8763565e-001
 -1.5527605e-001
 -1.3597437e-001
 -1.3147807e-001
 -1.2818335e-001
 -1.2066034e-001
 -1.1053131e-001
 -7.6725101e-002
 -3.3308967e-002
 -1.7250203e-002
 -4.4169046e-002
 -6.2022217e-002
 -8.8256150e-002
 -8.3670550e-002
 -9.0378457e-002
 -1.0019927e-001
 -1.5122027e-001
 -2.0228857e-001
 -2.2788789e-001
 -2.6257173e-001
 -2.8057396e-001
 -2.7137038e-001
 -2.6118295e-001
 -2.6497164e-001
 -2.9318183e-001
 -3.2112322e-001
 -3.2373849e-001
 -3.1632812e-001
 -3.1084350e-001
 -2.9915778e-001
 -2.3441110e-001
 -6.1742816e-002
  2.1579666e-001
  6.3311414e-001
  1.1245460e+000
  1.4651488e+000
  1.4045924e+000
  9.4556484e-001
  3.2090035e-001
 -1.6533204e-001
 -3.6106381e-001
 -3.5427046e-001
 -2.8427946e-001
 -2.7591646e-001
 -3.1087794e-001
 -3.7191282e-001
 -4.0734203e-001
 -4.0431336e-001
 -3.8326632e-001
 -3.6698526e-001
 -3.8272077e-001
 -3.9114600e-001
 -3.9807721e-001
 -4.0049983e-001
 -3.9715408e-001
 -3.7211661e-001
 -3.8018218e-001
 -3.9381149e-001
 -3.9544763e-001
 -3.9193548e-001
 -3.8969614e-001
 -3.7273267e-001
 -3.7557400e-001
 -3.8670636e-001
 -3.7649534e-001
 -3.8157135e-001
 -3.8363301e-001
 -3.7106949e-001
 -3.4922917e-001
 -3.3989649e-001
 -3.3990211e-001
 -3.5506774e-001
 -3.4284391e-001
 -3.2516909e-001
 -3.1027490e-001
 -2.9322966e-001
 -2.9477662e-001
 -2.8995612e-001
 -3.0694261e-001
 -2.9923497e-001
 -2.8666989e-001
 -2.7585195e-001
 -2.8143328e-001
 -2.8302638e-001
 -2.8034476e-001
 -2.9546768e-001
 -2.8834820e-001
 -2.6781089e-001
 -2.3155487e-001
 -2.2250919e-001
 -2.2587720e-001
 -2.3019549e-001
 -2.3474091e-001
 -2.4068347e-001
 -2.3075912e-001
 -2.3078719e-001
 -2.2821790e-001
 -2.3865722e-001
 -2.5418137e-001
 -2.6225118e-001
 -2.5443019e-001
 -2.4036140e-001
 -2.3509973e-001
 -2.4623494e-001
 -2.5860562e-001
 -2.7239723e-001
 -2.6354722e-001
 -2.4534753e-001
 -2.2538856e-001
 -2.3020790e-001
 -2.3084626e-001
 -2.6436695e-001
 -2.5485534e-001
 -2.3374406e-001
 -2.2563500e-001
 -2.2457412e-001
 -2.1868414e-001
 -2.2358404e-001
 -2.3382815e-001
 -2.4635901e-001
 -2.3899639e-001
 -2.3991394e-001
 -2.2780250e-001
 -2.1083184e-001
 -2.1790518e-001
 -2.3081510e-001
 -2.4076260e-001
 -2.3518335e-001
 -2.2181548e-001
 -2.0122690e-001
 -1.8810498e-001
 -1.7498756e-001
 -1.6942631e-001
 -1.5328455e-001
 -1.3509989e-001
 -1.1152837e-001
 -8.3340370e-002
 -7.1070108e-002
 -9.9926978e-002
 -1.1642783e-001
 -1.1827237e-001
 -1.2420929e-001
 -1.4400845e-001
 -1.9010945e-001
 -2.3471429e-001
 -2.7486126e-001
 -3.0979704e-001
 -3.0334292e-001
 -2.9483540e-001
 -2.9620385e-001
 -3.0459876e-001
 -3.3157848e-001
 -3.4728906e-001
 -3.5573977e-001
 -3.3890773e-001
 -3.2211714e-001
 -3.3326147e-001
 -3.6011706e-001
 -3.4292483e-001
 -2.1894627e-001
  4.9592045e-002
  4.6885242e-001
  9.4610963e-001
  1.3264065e+000
  1.3840547e+000
  1.0399794e+000
  4.3372932e-001
 -7.1894049e-002
 -3.2794161e-001
 -3.7097157e-001
 -3.2585155e-001
 -3.1062044e-001
 -3.4952461e-001
 -4.1314622e-001
 -4.2781239e-001
 -4.2716483e-001
 -4.1893152e-001
 -4.2094359e-001
 -4.2822150e-001
 -4.4205779e-001
 -4.4237677e-001
 -4.3871633e-001
 -4.4034203e-001
 -4.2953913e-001
 -4.2501646e-001
 -4.2545239e-001
 -4.2967611e-001
 -4.2564619e-001
 -4.2099556e-001
 -4.1275460e-001
 -4.0924333e-001
 -4.0354556e-001
 -4.0890929e-001
 -4.1673653e-001
 -3.9986211e-001
 -3.9007225e-001
 -3.8923922e-001
 -3.9357832e-001
 -3.9036442e-001
 -3.8200277e-001
 -3.7302569e-001
 -3.6633692e-001
 -3.6012938e-001
 -3.5041099e-001
 -3.4944691e-001
 -3.4985026e-001
 -3.5508443e-001
 -3.3923310e-001
 -3.2619156e-001
 -3.3323666e-001
 -3.2964317e-001
 -3.3896600e-001
 -3.5475546e-001
 -3.4381787e-001
 -3.2603008e-001
 -3.1139043e-001
 -3.0356084e-001
 -2.9575904e-001
 -2.9331781e-001
 -3.1011391e-001
 -2.8226180e-001
 -2.6539844e-001
 -2.6273882e-001
 -2.7497587e-001
 -2.7996322e-001
 -2.9587856e-001
 -3.1127314e-001
 -3.0851165e-001
 -3.0258387e-001
 -2.9247117e-001
 -2.9700233e-001
 -3.0849935e-001
 -3.2204510e-001
 -3.2676863e-001
 -3.0631089e-001
 -2.9243889e-001
 -2.9661227e-001
 -2.9253990e-001
 -3.0265473e-001
 -3.2024521e-001
 -3.2447876e-001
 -3.1056285e-001
 -2.9658409e-001
 -2.8511985e-001
 -2.9123507e-001
 -3.0617045e-001
 -3.1938172e-001
 -3.1864102e-001
 -3.0130029e-001
 -2.9746116e-001
 -3.0319954e-001
 -3.0460976e-001
 -3.1997652e-001
 -3.1827259e-001
 -3.1205862e-001
 -3.1251589e-001
 -3.0351590e-001
 -3.0130591e-001
 -3.0776282e-001
 -3.0722272e-001
 -2.8771205e-001
 -2.5944373e-001
 -2.4490411e-001
 -2.3956953e-001
 -2.2188771e-001
 -2.0549548e-001
 -1.6909057e-001
 -1.5749759e-001
 -1.4787762e-001
 -1.5483905e-001
 -1.7347185e-001
 -1.9240842e-001
 -2.1945174e-001
 -2.4797611e-001
 -2.6994939e-001
 -2.7596388e-001
 -3.0492855e-001
 -3.3490820e-001
 -3.7076784e-001
 -3.8907213e-001
 -3.7729515e-001
 -3.6042792e-001
 -3.6749508e-001
 -3.8391107e-001
 -4.0118874e-001
 -4.0078255e-001
 -4.1352353e-001
 -4.2389466e-001
 -4.1834910e-001
 -3.9868714e-001
 -3.1532052e-001
 -1.4023934e-001
  1.5564574e-001
  5.8920964e-001
  1.0700663e+000
  1.3827916e+000
  1.2996395e+000
  8.6083134e-001
  2.8080348e-001
 -1.8175341e-001
 -4.2526274e-001
 -4.4868887e-001
 -3.9154595e-001
 -3.5777669e-001
 -3.8905854e-001
 -4.3868575e-001
 -4.7160192e-001
 -4.7673014e-001
 -4.6902225e-001
 -4.5610423e-001
 -4.5848995e-001
 -4.7020937e-001
 -4.8149097e-001
 -4.7690442e-001
 -4.7027845e-001
 -4.5751355e-001
 -4.4731014e-001
 -4.4976267e-001
 -4.5844463e-001
 -4.7250610e-001
 -4.6288100e-001
 -4.3141785e-001
 -4.1999005e-001
 -4.3425474e-001
 -4.4297039e-001
 -4.6509322e-001
 -4.5567684e-001
 -4.4177841e-001
 -4.2059767e-001
 -4.1027836e-001
 -4.0663672e-001
 -4.1533868e-001
 -4.2042158e-001
 -4.1100121e-001
 -3.9192799e-001
 -3.6306707e-001
 -3.4991799e-001
 -3.5241471e-001
 -3.5707432e-001
 -3.7030176e-001
 -3.7272050e-001
 -3.6036086e-001
 -3.3263845e-001
 -3.3058731e-001
 -3.4200185e-001
 -3.4679654e-001
 -3.4173155e-001
 -3.4510614e-001
 -3.2583849e-001
 -3.1400554e-001
 -3.0976283e-001
 -2.9555197e-001
 -2.7298406e-001
 -2.6642516e-001
 -2.6324287e-001
 -2.4656221e-001
 -2.4885081e-001
 -2.5391368e-001
 -2.7305842e-001
 -2.7504980e-001
 -2.7463461e-001
 -2.7172628e-001
 -2.6589587e-001
 -2.7323137e-001
 -2.7776217e-001
 -2.7840256e-001
 -2.9010858e-001
 -2.9186103e-001
 -2.8065870e-001
 -2.7069417e-001
 -2.8130778e-001
 -2.8711128e-001
 -2.9766475e-001
 -2.9746253e-001
 -2.8868869e-001
 -2.7099353e-001
 -2.7055106e-001
 -2.8827171e-001
 -2.8445943e-001
 -2.7264545e-001
 -2.7045148e-001
 -2.7114639e-001
 -2.6547722e-001
 -2.7742549e-001
 -2.7835387e-001
 -2.9345648e-001
 -2.8304778e-001
 -2.6193498e-001
 -2.4344227e-001
 -2.4891761e-001
 -2.7569541e-001
 -2.9360416e-001
 -2.8455397e-001
 -2.6018549e-001
 -2.2817518e-001
 -1.9743570e-001
 -1.8569226e-001
 -1.7308094e-001
 -1.7510229e-001
 -1.6167333e-001
 -1.1920801e-001
 -7.6968172e-002
 -6.3185987e-002
 -1.0041639e-001
 -1.1545356e-001
 -1.3500573e-001
 -1.6754162e-001
 -2.0393843e-001
 -2.3191098e-001
 -2.4303248e-001
 -2.6030356e-001
 -2.9127928e-001
 -3.1898374e-001
 -3.2143136e-001
 -3.1066877e-001
 -2.9259846e-001
 -2.9723870e-001
 -3.1225012e-001
 -3.2674972e-001
 -3.4226336e-001
 -3.6608811e-001
 -3.4650218e-001
 -2.1891398e-001
  4.2703535e-002
  4.2330759e-001
  8.7750797e-001
  1.2725803e+000
  1.4074921e+000
  1.1463401e+000
  6.0198109e-001
  4.2517444e-002
 -2.9950433e-001
 -4.2253139e-001
 -3.7088502e-001
 -3.1484689e-001
 -3.1344581e-001
 -3.6009648e-001
 -3.9279556e-001
 -4.0370109e-001
 -3.9820771e-001
 -3.8665412e-001
 -3.8080754e-001
 -3.7349256e-001
 -3.8353063e-001
 -3.7120300e-001
 -3.7581325e-001
 -3.7990542e-001
 -3.6900049e-001
 -3.7797019e-001
 -3.5894150e-001
 -3.7503686e-001
 -3.8290154e-001
 -3.7595808e-001
 -3.5945901e-001
 -3.3474982e-001
 -3.3991288e-001
 -3.4911367e-001
 -3.5673209e-001
 -3.4818749e-001
 -3.3481383e-001
 -3.1912182e-001
 -2.9695220e-001
 -2.8383421e-001
 -2.8495008e-001
 -2.8132118e-001
 -3.0447072e-001
 -2.9499996e-001
 -2.6786931e-001
 -2.4899859e-001
 -2.4709949e-001
 -2.3892211e-001
 -2.3312422e-001
 -2.3494591e-001
 -2.3712059e-001
 -2.2479706e-001
 -2.1896412e-001
 -2.3430825e-001
 -2.2372436e-001
 -2.4161130e-001
 -2.3562509e-001
 -1.9357067e-001
 -1.6086777e-001
 -1.4363768e-001
 -1.3927896e-001
 -1.3639632e-001
 -1.2929880e-001
 -1.2489445e-001
 -1.4599045e-001
 -1.3873502e-001
 -1.3021123e-001
 -1.3675485e-001
 -1.4447665e-001
 -1.5228171e-001
 -1.5866995e-001
 -1.5680025e-001
 -1.4499125e-001
 -1.4073950e-001
 -1.3276151e-001
 -1.3206409e-001
 -1.3278813e-001
 -1.3611821e-001
 -1.4156979e-001
 -1.3022573e-001
 -1.2570291e-001
 -1.2678432e-001
 -1.2169436e-001
 -1.1578485e-001
 -1.2055742e-001
 -1.2247919e-001
 -1.2838187e-001
 -1.1540557e-001
 -1.1943710e-001
 -1.2398381e-001
 -1.1972976e-001
 -1.1816203e-001
 -9.2910841e-002
 -9.7035735e-002
 -1.1365938e-001
 -1.1829533e-001
 -1.2347485e-001
 -1.2353001e-001
 -1.0721330e-001
 -8.6210253e-002
 -8.9809455e-002
 -1.0804574e-001
 -1.0126110e-001
 -5.8742998e-002
 -3.4358599e-002
 -4.0205508e-003
  2.7118668e-002
  3.5489805e-002
  5.4366277e-002
  5.1248843e-002
  4.3104953e-002
  5.1867448e-002
  5.2640112e-002
  3.1921856e-002
 -1.9625209e-002
 -7.8289577e-002
 -1.1143225e-001
 -1.3367575e-001
 -1.3802024e-001
 -1.2880298e-001
 -1.4427807e-001
 -1.6295713e-001
 -1.7698167e-001
 -1.7290250e-001
 -1.7151090e-001
 -1.5061471e-001
 -1.5179023e-001
 -1.7567794e-001
 -1.8302689e-001
 -1.3159641e-001
  2.7038253e-002
  3.5801250e-001
  8.2480357e-001
  1.3025683e+000
  1.6159369e+000
  1.5812419e+000
  1.1259827e+000
  4.8953890e-001
  1.6058630e-002
 -1.8201197e-001
 -2.0296411e-001
 -1.5004074e-001
 -1.2873082e-001
 -1.8135069e-001
 -2.3725266e-001
 -2.4601193e-001
 -2.1597409e-001
 -2.0744704e-001
 -2.1077289e-001
 -2.4168097e-001
 -2.4102813e-001
 -2.3397857e-001
 -2.2460567e-001
 -2.2394794e-001
 -2.1222346e-001
 -2.2431275e-001
 -2.3503495e-001
 -2.4095042e-001
 -2.3208184e-001
 -2.2409180e-001
 -2.1283281e-001
 -2.1208015e-001
 -2.2198732e-001
 -2.1279702e-001
 -2.0439636e-001
 -1.8691003e-001
 -1.7994874e-001
 -1.6419202e-001
 -1.7013424e-001
 -1.7779719e-001
 -1.7706831e-001
 -1.6877513e-001
 -1.4135880e-001
 -1.1447080e-001
 -1.1918256e-001
 -1.3178493e-001
 -1.2417286e-001
 -1.3061488e-001
 -1.2617416e-001
 -1.1119586e-001
 -1.1980671e-001
 -1.1324986e-001
 -1.1547251e-001
 -1.0428885e-001
 -8.9314924e-002
 -7.3233066e-002
 -5.1593121e-002
 -4.5639998e-002
 -4.8356005e-002
 -4.4643135e-002
 -5.2960775e-002
 -4.5773007e-002
 -4.3507171e-002
 -6.0698084e-002
 -6.5832653e-002
 -6.8208644e-002
 -7.2924079e-002
 -7.4037186e-002
 -5.8607930e-002
 -4.3837125e-002
 -5.3317041e-002
 -6.9560205e-002
 -8.3841205e-002
 -8.9331606e-002
 -6.9662819e-002
 -5.9196252e-002
 -4.6738844e-002
 -5.9221267e-002
 -7.3632542e-002
 -8.7481307e-002
 -8.1712360e-002
 -7.5949709e-002
 -5.2040956e-002
 -3.3509838e-002
 -4.6929405e-002
 -5.7605229e-002
 -6.9248324e-002
 -7.6393623e-002
 -6.8683625e-002
 -4.4115042e-002
 -4.6999039e-002
 -5.7457372e-002
 -6.9015955e-002
 -7.5648259e-002
 -7.0056391e-002
 -6.1016213e-002
 -4.8942145e-002
 -5.7380215e-002
 -4.7585096e-002
 -4.5381601e-002
 -3.6222172e-002
 -1.1317500e-002
  1.4468568e-002
  3.6778773e-002
  5.7083147e-002
  8.2307000e-002
  9.7242295e-002
  8.1142664e-002
  7.7705783e-002
  8.5047856e-002
  7.3692740e-002
  3.3474439e-002
 -2.0166668e-002
 -4.9198078e-002
 -7.0686163e-002
 -8.5117688e-002
 -1.0701244e-001
 -1.2929508e-001
 -1.5587881e-001
 -1.6206972e-001
 -1.5645365e-001
 -1.6805043e-001
 -1.5151082e-001
 -1.5200179e-001
 -1.6940336e-001
 -1.9236723e-001
 -2.1680225e-001
 -1.5533304e-001
 -1.2654937e-002
  2.7669267e-001
  6.8579139e-001
  1.1532429e+000
  1.5316440e+000
  1.6559605e+000
  1.3692119e+000
  8.0931073e-001
  2.6779623e-001
 -6.4521369e-002
 -1.9529840e-001
 -1.9740377e-001
 -1.7506324e-001
 -1.7648670e-001
 -1.9994755e-001
 -2.3505806e-001
 -2.4823451e-001
 -2.5700186e-001
 -2.6395554e-001
 -2.7076147e-001
 -2.7004854e-001
 -2.4355453e-001
 -2.5458476e-001
 -2.5694275e-001
 -2.6423772e-001
 -2.7906756e-001
 -2.7343258e-001
 -2.5216766e-001
 -2.4225790e-001
 -2.4928519e-001
 -2.5111103e-001
 -2.5698920e-001
 -2.5925885e-001
 -2.6908987e-001
 -2.2825363e-001
 -2.0185950e-001
 -2.0932275e-001
 -2.1602470e-001
 -2.1753844e-001
 -2.3241014e-001
 -2.1129855e-001
 -1.8819567e-001
 -1.6924835e-001
 -1.6526720e-001
 -1.7414387e-001
 -1.7769774e-001
 -1.6839943e-001
 -1.5343901e-001
 -1.3870570e-001
 -1.3718572e-001
 -1.4521467e-001
 -1.5608865e-001
 -1.6504005e-001
 -1.4654119e-001
 -1.2879877e-001
 -1.1070560e-001
 -9.5733306e-002
 -9.9184728e-002
 -9.8636724e-002
 -9.5669313e-002
 -9.1732110e-002
 -8.9128736e-002
 -8.0566448e-002
 -8.2485094e-002
 -1.0656020e-001
 -1.2282045e-001
 -1.1414126e-001
 -1.0510545e-001
 -1.0043269e-001
 -1.0496568e-001
 -1.0967644e-001
 -1.1378721e-001
 -1.1884212e-001
 -1.1592594e-001
 -1.0357794e-001
 -9.7847442e-002
 -9.9196632e-002
 -1.0276473e-001
 -1.0438014e-001
 -9.9336932e-002
 -9.7157155e-002
 -9.1869545e-002
 -8.3119853e-002
 -8.4721341e-002
 -9.5421272e-002
 -9.6320452e-002
 -8.9530483e-002
 -7.4252499e-002
 -6.7774944e-002
 -6.6417978e-002
 -7.7307150e-002
 -9.1111796e-002
 -8.7851317e-002
 -7.7573296e-002
 -7.1679268e-002
 -5.6957805e-002
 -6.0257114e-002
 -6.9691667e-002
 -8.3002911e-002
 -6.2668955e-002
 -3.1865220e-002
  8.4297728e-005
  2.5104838e-002
  2.7485809e-002
  2.0720283e-002
  3.9535567e-002
  6.4154990e-002
  8.4647980e-002
  9.1750911e-002
  9.1520961e-002
  7.4164280e-002
  3.7022901e-002
 -5.8506518e-004
 -3.5774143e-002
 -5.2269507e-002
 -7.3009070e-002
 -8.7654719e-002
 -1.1643181e-001
 -1.4030075e-001
 -1.4565440e-001
 -1.4164595e-001
 -1.4915628e-001
 -1.5580909e-001
 -1.5153219e-001
 -1.6086335e-001
 -1.7606065e-001
 -1.9175074e-001
 -2.0054849e-001
 -1.7311471e-001
 -6.4448834e-002
  1.3536459e-001
  4.6936174e-001
  9.3473266e-001
  1.4079311e+000
  1.6556720e+000
  1.4925715e+000
  9.8706725e-001
  3.9437188e-001
 -1.4014213e-002
 -1.9624444e-001
 -1.9250101e-001
 -1.3953179e-001
 -1.4399490e-001
 -1.9466940e-001
 -2.4393951e-001
 -2.6924401e-001
 -2.5762238e-001
 -2.4095239e-001
 -2.2760634e-001
 -2.4106941e-001
 -2.6941925e-001
 -2.7628877e-001
 -2.7809091e-001
 -2.6359909e-001
 -2.3852455e-001
 -2.2999779e-001
 -2.4766108e-001
 -2.5723811e-001
 -2.6116049e-001
 -2.5653513e-001
 -2.4770248e-001
 -2.2912841e-001
 -2.2618834e-001
 -2.2625180e-001
 -2.2399607e-001
 -2.3144435e-001
 -2.1816266e-001
 -2.0538850e-001
 -1.8823483e-001
 -1.8463915e-001
 -1.8680156e-001
 -1.9118923e-001
 -1.7854226e-001
 -1.6914254e-001
 -1.3772593e-001
 -1.2985272e-001
 -1.5309462e-001
 -1.5047193e-001
 -1.4636126e-001
 -1.4331678e-001
 -1.2537743e-001
 -1.1621417e-001
 -1.2456408e-001
 -1.2708398e-001
 -1.2518445e-001
 -1.2298035e-001
 -1.1128888e-001
 -9.8958938e-002
 -8.1487266e-002
 -7.3168803e-002
 -6.6078896e-002
 -7.8922430e-002
 -8.0522375e-002
 -7.7219675e-002
 -6.8786722e-002
 -7.6372710e-002
 -8.5819256e-002
 -9.4009112e-002
 -9.3050221e-002
 -9.2200473e-002
 -9.5371189e-002
 -9.3169243e-002
 -9.9856687e-002
 -8.7621436e-002
 -1.0343742e-001
 -1.1208307e-001
 -1.0843459e-001
 -9.9324030e-002
 -8.2511641e-002
 -9.0783140e-002
 -9.4333357e-002
 -1.0097728e-001
 -1.0727718e-001
 -8.4652840e-002
 -6.3733091e-002
 -4.6269855e-002
 -6.8156660e-002
 -8.9724154e-002
 -9.3164133e-002
 -7.6674179e-002
 -6.4565606e-002
 -6.2115545e-002
 -7.5658054e-002
 -8.3897741e-002
 -8.7128663e-002
 -8.6490140e-002
 -7.9887906e-002
 -7.2795970e-002
 -5.5561390e-002
 -4.1477301e-002
 -3.7785056e-002
 -3.4210023e-002
 -4.2592965e-003
  2.2696661e-002
  4.6084892e-002
  7.4454033e-002
  1.0904910e-001
  1.0887596e-001
  8.4735217e-002
  7.3084901e-002
  7.3302612e-002
  7.6393854e-002
  5.5356717e-002
  9.4906796e-003
 -3.2205176e-002
 -6.9978216e-002
 -1.0082938e-001
 -1.0922387e-001
 -1.0560159e-001
 -1.0117156e-001
 -1.1215188e-001
 -1.2787283e-001
 -1.3489963e-001
 -1.4808820e-001
 -1.4399024e-001
 -1.4089871e-001
 -1.4671979e-001
 -1.7367391e-001
 -1.5229536e-001
 -1.5345776e-002
  2.2570867e-001
  6.1899218e-001
  1.1347343e+000
  1.5617399e+000
  1.6350322e+000
  1.2910042e+000
  7.1353410e-001
  1.6985224e-001
 -1.4150378e-001
 -1.9130848e-001
 -1.3372869e-001
 -1.0808871e-001
 -1.2203375e-001
 -1.6193909e-001
 -1.9472992e-001
 -2.0759904e-001
 -2.1238380e-001
 -2.0992768e-001
 -2.1702720e-001
 -2.1166228e-001
 -2.0013447e-001
 -1.8558104e-001
 -1.9135888e-001
 -1.9765899e-001
 -2.0573280e-001
 -2.1344640e-001
 -1.8912873e-001
 -1.6292759e-001
 -1.6124697e-001
 -1.6369250e-001
 -1.7597117e-001
 -1.9555812e-001
 -1.8732362e-001
 -1.6105098e-001
 -1.4343080e-001
 -1.3331260e-001
 -1.4923581e-001
 -1.4943541e-001
 -1.4464497e-001
 -1.4884783e-001
 -1.2894945e-001
 -1.1120036e-001
 -1.0494950e-001
 -1.0167371e-001
 -1.0042720e-001
 -1.1163116e-001
 -1.0649434e-001
 -7.1221016e-002
 -5.8264093e-002
 -5.6135684e-002
 -6.7088800e-002
 -6.5036207e-002
 -6.5042508e-002
 -7.1376390e-002
 -6.7180340e-002
 -5.3520397e-002
 -5.5654818e-002
 -4.9776880e-002
 -5.1250173e-002
 -2.0177306e-002
 -1.4011605e-002
  5.3379666e-003
  1.5609089e-002
  3.3256189e-003
  5.4200653e-003
 -1.4005687e-003
 -3.4942949e-003
 -5.5182570e-003
 -1.7307750e-002
 -1.8737824e-002
 -3.2308289e-002
 -2.7555760e-002
 -2.1046032e-002
 -2.1332815e-002
 -1.7744718e-002
 -6.9802477e-003
 -1.1688909e-002
 -1.6833475e-002
 -3.1900296e-002
 -2.4267488e-002
 -1.4168903e-002
 -2.2102810e-003
  2.7183547e-003
 -1.6819803e-002
 -3.2545543e-002
 -5.2303693e-002
 -3.9845116e-002
 -1.1556381e-002
 -9.6304577e-003
 -1.5623472e-002
 -2.4428475e-002
 -2.8048245e-002
 -3.8992018e-002
 -3.1380426e-002
 -1.6114069e-002
  1.5632081e-003
 -2.1277585e-002
 -3.2799125e-002
 -4.5078253e-002
 -5.9645774e-002
 -3.4653937e-002
 -3.1470777e-003
  2.6164373e-002
  3.2787773e-002
  3.3882693e-002
  2.9570522e-002
  3.8878202e-002
  7.0704101e-002
  1.2562130e-001
  1.6874890e-001
  1.6165080e-001
  1.3547373e-001
  1.1373799e-001
  1.0127557e-001
  1.0273551e-001
  7.5966833e-002
  2.9726940e-002
 -1.4699494e-002
 -4.6026759e-002
 -6.6977791e-002
 -9.1750963e-002
 -9.4070232e-002
 -7.7800281e-002
 -7.8339990e-002
 -9.1242585e-002
 -1.1212517e-001
 -1.2915775e-001
 -1.0453173e-001
 -1.1717663e-001
 -1.4317064e-001
 -1.0520320e-001
  1.8547723e-002
  2.6243569e-001
  6.5438462e-001
  1.1136114e+000
  1.5235561e+000
  1.6239211e+000
  1.3227467e+000
  7.4568903e-001
  1.9958621e-001
 -1.0547100e-001
 -1.6466393e-001
 -1.1939309e-001
 -7.7146302e-002
 -1.0579428e-001
 -1.6177197e-001
 -1.9424242e-001
 -1.8570625e-001
 -1.6285673e-001
 -1.6305021e-001
 -1.7887755e-001
 -1.9165798e-001
 -1.9507077e-001
 -1.9093384e-001
 -1.7104627e-001
 -1.6521632e-001
 -1.5944446e-001
 -1.7542252e-001
 -1.6738059e-001
 -1.7698776e-001
 -1.7995996e-001
 -1.6100138e-001
 -1.4696902e-001
 -1.3778539e-001
 -1.5106007e-001
 -1.5477818e-001
 -1.4576277e-001
 -1.4706574e-001
 -1.3290137e-001
 -1.1635166e-001
 -1.2931194e-001
 -1.1903336e-001
 -1.1809745e-001
 -1.1645198e-001
 -1.0068066e-001
 -1.0121285e-001
 -8.1555192e-002
 -8.1459891e-002
 -7.2554582e-002
 -6.5831976e-002
 -5.8266590e-002
 -5.8956179e-002
 -5.7623652e-002
 -5.6349514e-002
 -6.8074937e-002
 -6.1823120e-002
 -6.3881274e-002
 -4.6968219e-002
 -4.2988146e-002
 -3.8107936e-002
 -2.7030951e-002
 -1.8215521e-002
 -2.4895510e-003
  1.5723944e-002
  3.8093061e-002
  4.5970687e-002
  2.8775787e-002
  1.8788684e-002
  2.4711833e-003
 -6.7634624e-003
  1.2984412e-002
  2.6332218e-002
  1.8141163e-002
  3.5024032e-004
 -1.1592812e-002
 -3.1415123e-002
 -2.8183456e-002
 -8.7367654e-003
  1.0569704e-002
  1.2139660e-002
  2.4345432e-003
  4.5113799e-003
 -1.6363580e-002
 -1.3540550e-002
 -1.2887235e-002
  4.9878454e-003
  1.4295824e-002
  9.2492213e-003
  4.3766432e-003
  6.5789762e-004
  6.8668618e-003
  1.4402694e-002
  1.2519270e-002
  3.6913971e-003
  4.7217744e-003
  1.4468018e-002
  5.5011337e-003
 -2.8393893e-004
  1.3381004e-002
  1.7909162e-002
 -6.4264269e-004
  4.9576436e-004
  4.7739805e-003
  1.7255063e-002
  2.7636986e-002
  4.4246463e-002
  5.3508353e-002
  5.6065946e-002
  5.6713084e-002
  5.4286489e-002
  7.5549137e-002
  1.1154053e-001
  1.6441758e-001
  1.7181069e-001
  1.7344845e-001
  1.5592113e-001
  1.4312458e-001
  1.6741358e-001
  1.5409961e-001
  1.1475858e-001
  6.6565095e-002
  1.8661885e-002
 -1.8806038e-002
 -4.3252376e-002
 -5.0064202e-002
 -2.6395520e-002
 -1.9506240e-002
 -4.1985742e-002
 -5.6326132e-002
 -6.4606535e-002
 -6.5017469e-002
 -5.8868766e-002
 -5.7037284e-002
 -7.4373075e-002
 -8.8382508e-002
 -1.5472877e-002
  1.9958869e-001
  5.7207785e-001
  1.0277705e+000
  1.4770900e+000
  1.7214798e+000
  1.5423226e+000
  1.0207372e+000
  4.3405028e-001
  2.5910339e-002
 -1.4096370e-001
 -1.3169154e-001
 -5.8040333e-002
 -5.4203873e-002
 -7.7501783e-002
 -1.2657608e-001
 -1.4596644e-001
 -1.4984290e-001
 -1.3111365e-001
 -1.3223826e-001
 -1.4804044e-001
 -1.4580613e-001
 -1.3725624e-001
 -1.2505826e-001
 -1.1826906e-001
 -1.1609861e-001
 -1.0821755e-001
 -1.1389641e-001
 -1.2313239e-001
 -1.2059511e-001
 -1.0835986e-001
 -1.0657035e-001
 -1.1094423e-001
 -1.0902304e-001
 -9.8718464e-002
 -7.4023899e-002
 -6.1357534e-002
 -6.3895867e-002
 -6.3783279e-002
 -6.2671404e-002
 -6.7189005e-002
 -5.1639227e-002
 -4.1895461e-002
 -1.6102904e-002
 -5.5083251e-003
 -1.8601239e-002
 -2.4543976e-002
 -2.4213065e-002
 -4.2742781e-003
  7.6790475e-003
  1.0799429e-002
  7.2635767e-003
 -2.2578780e-003
 -2.8512317e-002
 -1.5583259e-002
  2.3818527e-002
  6.5322372e-002
  8.4546589e-002
  8.6664228e-002
  7.3648195e-002
  6.3376803e-002
  8.0860531e-002
  8.6361610e-002
  7.9226361e-002
  5.7414570e-002
  5.9227548e-002
  4.6344038e-002
  3.6715447e-002
  3.7311741e-002
  5.5350828e-002
  5.9087914e-002
  5.6524510e-002
  5.7481300e-002
  2.9266491e-002
  2.6554561e-002
  4.4687512e-002
  7.0028363e-002
  6.7427112e-002
  6.1087013e-002
  5.4987404e-002
  5.0473289e-002
  5.6558625e-002
  6.5056697e-002
  6.3390230e-002
  7.0111899e-002
  7.5034859e-002
  7.3280292e-002
  7.3894272e-002
  7.6975930e-002
  8.3004283e-002
  9.8786090e-002
  1.0776105e-001
  1.0917582e-001
  9.6357725e-002
  8.2856798e-002
  6.8266693e-002
  6.7137964e-002
  8.6053408e-002
  1.0510042e-001
  1.0962790e-001
  1.2220954e-001
  1.4740313e-001
  1.7321373e-001
  1.9134055e-001
  2.1047500e-001
  2.4408604e-001
  2.6245632e-001
  2.6506855e-001
  2.6162274e-001
  2.5376760e-001
  2.3654347e-001
  2.2062039e-001
  1.7755748e-001
  1.3767877e-001
  1.1834139e-001
  1.1862808e-001
  1.0147408e-001
  6.7398305e-002
  4.9901157e-002
  3.3658144e-002
  2.2339863e-002
  2.6294902e-002
  3.7841705e-002
  4.4919976e-002
  4.4494472e-002
  2.1717610e-002
 -3.5169911e-003
  5.8969124e-003
  1.2851950e-001
  3.7179608e-001
  7.3428241e-001
  1.1892878e+000
  1.6246002e+000
  1.8564621e+000
  1.7385627e+000
  1.2750017e+000
  6.7829040e-001
  2.1574423e-001
  4.0870632e-003
 -3.0645242e-002
  1.3355512e-002
  5.4017920e-002
  4.3421239e-002
  7.2974972e-003
 -2.8747612e-002
 -3.1127931e-002
 -3.1864266e-002
 -6.4276434e-002
 -7.1915873e-002
 -4.6063390e-002
 -2.5256861e-002
 -1.5580968e-002
 -2.6075169e-002
 -3.3994904e-002
 -4.0058979e-002
 -4.3193098e-002
 -1.9139187e-002
 -1.2026667e-002
 -1.4147525e-002
 -2.8563032e-002
 -4.2680891e-002
 -1.6981481e-002
  1.0109292e-003
  4.4809300e-003
 -8.6878888e-003
 -8.6475271e-003
  5.9273201e-005
  6.2198513e-003
  1.2184840e-002
  2.5633699e-002
  2.7728102e-002
  3.4786336e-002
  3.8603811e-002
  5.6739067e-002
  5.7834946e-002
  7.1228167e-002
  8.6702860e-002
  7.8319687e-002
  6.4446530e-002
  6.1752438e-002
  5.1588573e-002
  5.6704191e-002
  7.5810998e-002
  8.2285927e-002
  7.7419724e-002
  8.0597055e-002
  9.6118422e-002
  1.1727968e-001
  1.4325500e-001
  1.5718385e-001
  1.4673229e-001
  1.2768507e-001
  1.2548789e-001
  1.0906414e-001
  1.1483801e-001
  1.2979138e-001
  1.2833150e-001
  1.3134672e-001
  1.1246830e-001
  7.6010210e-002
  6.0316489e-002
  6.9998035e-002
  8.8805358e-002
  9.7804505e-002
  8.9800457e-002
  8.9342001e-002
  7.3789921e-002
  8.4495436e-002
  9.9307786e-002
  1.0569188e-001
  1.2036452e-001
  1.2186583e-001
  1.1401612e-001
  9.9060317e-002
  8.9877602e-002
  1.0898354e-001
  1.1678037e-001
  1.2386054e-001
  1.1989448e-001
  9.9034045e-002
  8.9729111e-002
  9.8747596e-002
  9.4280599e-002
  1.1432853e-001
  1.0971473e-001
  8.6292634e-002
  7.3571335e-002
  9.0714936e-002
  1.1007223e-001
  1.1568924e-001
  1.4648690e-001
  1.7165124e-001
  1.7491917e-001
  1.7823795e-001
  1.9932789e-001
  2.3629477e-001
  2.6958483e-001
  2.6604579e-001
  2.5724032e-001
  2.3447539e-001
  2.1175302e-001
  1.9470875e-001
  1.7094780e-001
  1.2957830e-001
  9.6367696e-002
  5.3448717e-002
  2.5287790e-002
  5.6992237e-003
 -2.4195559e-003
  2.1543867e-003
  1.2078949e-002
 -4.2317402e-003
 -1.1377921e-002
 -1.4879412e-002
 -2.6300383e-002
 -4.6898929e-002
 -1.4366775e-002
  1.0700285e-001
  3.4347114e-001
  7.2660932e-001
  1.2464465e+000
  1.7123111e+000
  1.8370618e+000
  1.5100087e+000
  8.8678339e-001
  2.9136270e-001
 -1.8856995e-002
 -8.3830390e-002
 -3.0802598e-002
  2.0472071e-003
 -2.6918638e-002
 -8.5966223e-002
 -1.2625527e-001
 -1.3229555e-001
 -1.2717179e-001
 -1.3119278e-001
 -1.2438809e-001
 -1.0338592e-001
 -1.1620915e-001
 -1.3976813e-001
 -1.4244490e-001
 -1.5264476e-001
 -1.4412641e-001
 -1.2288692e-001
 -1.2028025e-001
 -1.4894233e-001
 -1.6094087e-001
 -1.6137790e-001
 -1.5795546e-001
 -1.4384477e-001
 -1.1881783e-001
 -1.3635770e-001
 -1.3767689e-001
 -1.3580805e-001
 -1.3420473e-001
 -1.3069167e-001
 -1.2247724e-001
 -9.7533083e-002
 -8.0418163e-002
 -1.0084030e-001
 -9.8692630e-002
 -8.6402067e-002
 -7.3642198e-002
 -5.9783046e-002
 -5.6990266e-002
 -4.8657341e-002
 -6.3892463e-002
 -5.7357720e-002
 -5.5923195e-002
 -6.4482137e-002
 -5.1282533e-002
 -4.8720081e-002
 -6.0829799e-002
 -5.8727506e-002
 -4.2045828e-002
 -2.0603148e-002
 -6.8825169e-004
  6.4097439e-003
 -1.3967703e-003
 -1.1914396e-002
 -1.2992703e-002
  5.8255070e-003
  5.2472633e-003
  6.5206955e-003
 -3.2484709e-003
 -1.3866218e-002
 -3.2517407e-002
 -3.5289728e-002
 -1.9138981e-002
 -1.3377859e-002
 -1.2360456e-002
 -2.2937755e-002
 -4.3780023e-002
 -5.8284141e-002
 -5.8656628e-002
 -4.4764577e-002
 -4.2423518e-002
 -4.0124215e-002
 -2.8640629e-002
 -3.5179597e-002
 -4.6121867e-002
 -4.4759956e-002
 -3.7729960e-002
 -1.8787198e-002
 -1.2123530e-002
 -2.1553697e-002
 -3.4017030e-002
 -4.1216528e-002
 -4.0759127e-002
 -2.6999611e-002
 -2.0716139e-002
 -1.5372680e-002
 -1.4626554e-002
 -3.4145378e-002
 -5.5468943e-002
 -5.1961021e-002
 -4.9527432e-002
 -2.0721935e-002
 -9.2943478e-003
 -7.0723427e-003
 -5.4105978e-003
  1.2478461e-002
  4.4209517e-002
  6.1583117e-002
  6.9240206e-002
  8.6180172e-002
  1.0476983e-001
  9.6522672e-002
  1.0217010e-001
  1.0907793e-001
  1.1858364e-001
  1.0893098e-001
  7.8614551e-002
  2.1175912e-002
 -2.0505714e-002
 -4.3468770e-002
 -6.8598692e-002
 -8.5211408e-002
 -1.1172674e-001
 -1.1263841e-001
 -1.1303211e-001
 -1.2795971e-001
 -1.2689923e-001
 -1.4033541e-001
 -1.3741583e-001
 -1.3054492e-001
 -1.5309989e-001
 -1.6986084e-001
 -1.3865738e-001
 -7.3645153e-003
  1.9836083e-001
  5.5483036e-001
  9.9821053e-001
  1.4466178e+000
  1.6702507e+000
  1.5001644e+000
  1.0040907e+000
  4.4499841e-001
  2.8504527e-002
 -1.5636868e-001
 -1.7798051e-001
 -1.2845985e-001
 -1.1551404e-001
 -1.4946783e-001
 -2.0182479e-001
 -2.3453494e-001
 -2.4554876e-001
 -2.3850402e-001
 -2.3617082e-001
 -2.3200068e-001
 -2.2471440e-001
 -2.3219295e-001
 -2.4714362e-001
 -2.5107124e-001
 -2.5187571e-001
 -2.4670880e-001
 -2.3024941e-001
 -2.3290495e-001
 -2.3968766e-001
 -2.4134939e-001
 -2.5089688e-001
 -2.4480491e-001
 -2.4551642e-001
 -2.1804405e-001
 -2.1029218e-001
 -2.1833213e-001
 -2.2451783e-001
 -2.3409068e-001
 -2.2760839e-001
 -2.1130963e-001
 -1.9276711e-001
 -1.8014080e-001
 -1.9659602e-001
 -1.9778925e-001
 -1.8233653e-001
 -1.7310508e-001
 -1.6097416e-001
 -1.6056533e-001
 -1.5223126e-001
 -1.5560201e-001
 -1.4429452e-001
 -1.3584414e-001
 -1.4322334e-001
 -1.5218332e-001
 -1.4130016e-001
 -1.3527209e-001
 -1.4562811e-001
 -1.4540904e-001
 -1.2717885e-001
 -1.0904281e-001
 -1.0889398e-001
 -9.8009749e-002
 -1.1690418e-001
 -1.1465230e-001
 -1.0252299e-001
 -7.8469997e-002
 -7.9404790e-002
 -8.4206298e-002
 -9.5976281e-002
 -1.0739656e-001
 -1.2472016e-001
 -1.2887384e-001
 -1.0567340e-001
 -1.0267741e-001
 -1.1109988e-001
 -1.1353997e-001
 -1.3383101e-001
 -1.3951393e-001
 -1.2928201e-001
 -1.2128975e-001
 -1.2137950e-001
 -1.2849255e-001
 -1.2039901e-001
 -1.3048527e-001
 -1.4407836e-001
 -1.3454719e-001
 -1.0972548e-001
 -1.1617108e-001
 -1.1337110e-001
 -1.1045359e-001
 -1.1068032e-001
 -1.1742277e-001
 -1.1189791e-001
 -1.1701869e-001
 -1.1318672e-001
 -1.0786293e-001
 -1.2731006e-001
 -1.1315598e-001
 -1.2043276e-001
 -1.1502085e-001
 -1.0764144e-001
 -1.2325805e-001
 -1.3281452e-001
 -1.3434318e-001
 -1.2049078e-001
 -1.0864934e-001
 -7.6131133e-002
 -5.9792988e-002
 -5.7994336e-002
 -5.9746394e-002
 -5.3809085e-002
 -2.2400638e-002
  2.4995526e-002
  5.6198284e-002
  7.6050122e-002
  3.3539955e-002
  8.3544624e-003
  6.0570543e-004
 -1.5510033e-003
 -1.8380899e-002
 -5.7370624e-002
 -9.6909892e-002
 -1.3223849e-001
 -1.7243465e-001
 -1.9958824e-001
 -1.8749832e-001
 -1.8505084e-001
 -1.9250441e-001
 -2.1097698e-001
 -2.2175105e-001
 -2.3474126e-001
 -2.2597241e-001
 -2.3699563e-001
 -2.4918920e-001
 -2.5679740e-001
 -2.2147745e-001
 -8.7610718e-002
  1.7069790e-001
  5.6711242e-001
  1.0489247e+000
  1.4534178e+000
  1.5033055e+000
  1.1192446e+000
  5.1679009e-001
  2.2607405e-002
 -2.2933748e-001
 -2.6616754e-001
 -2.2178616e-001
 -1.9161815e-001
 -2.3038682e-001
 -2.8566871e-001
 -3.2005000e-001
 -3.0637227e-001
 -2.8799970e-001
 -2.9165197e-001
 -3.0482205e-001
 -3.2876358e-001
 -3.3164915e-001
 -3.1145550e-001
 -2.9418498e-001
 -2.9849781e-001
 -3.0083679e-001
 -3.0013461e-001
 -3.3308793e-001
 -3.2619766e-001
 -3.0408513e-001
 -2.8622485e-001
 -2.7637483e-001
 -2.7710722e-001
 -2.8453595e-001
 -3.0215569e-001
 -2.9003511e-001
 -2.6004145e-001
 -2.4774103e-001
 -2.5508889e-001
 -2.6326239e-001
 -2.7086467e-001
 -2.7122279e-001
 -2.5880425e-001
 -2.3718579e-001
 -2.1830222e-001
 -2.2696154e-001
 -2.2411468e-001
 -2.2291756e-001
 -2.1801605e-001
 -2.1038218e-001
 -2.0052328e-001
 -2.0062464e-001
 -1.9560540e-001
 -2.0121479e-001
 -2.1121109e-001
 -2.1178357e-001
 -1.9852879e-001
 -1.6472506e-001
 -1.4551071e-001
 -1.3492866e-001
 -1.4817021e-001
 -1.5095658e-001
 -1.4695074e-001
 -1.5826960e-001
 -1.4929720e-001
 -1.4098538e-001
 -1.5344606e-001
 -1.7117485e-001
 -1.7795855e-001
 -1.8730077e-001
 -1.7085665e-001
 -1.5757712e-001
 -1.6587852e-001
 -1.7699366e-001
 -1.7854242e-001
 -1.8423793e-001
 -1.7538291e-001
 -1.7003295e-001
 -1.6860279e-001
 -1.5779507e-001
 -1.6252225e-001
 -1.7502107e-001
 -1.7165543e-001
 -1.5919660e-001
 -1.4857806e-001
 -1.4967982e-001
 -1.6766084e-001
 -1.7925986e-001
 -1.7204318e-001
 -1.6083411e-001
 -1.6018630e-001
 -1.5600948e-001
 -1.6010323e-001
 -1.7011727e-001
 -1.7532195e-001
 -1.7904345e-001
 -1.8694716e-001
 -1.6491479e-001
 -1.4816627e-001
 -1.4789461e-001
 -1.6464285e-001
 -1.6154675e-001
 -1.3602263e-001
 -1.0229181e-001
 -7.5431979e-002
 -6.4061007e-002
 -5.9953824e-002
 -4.7479315e-002
 -2.6443401e-002
 -2.1618406e-002
 -1.0753890e-002
 -9.2313147e-003
 -2.1599298e-002
 -6.5544175e-002
 -1.0111662e-001
 -1.2573059e-001
 -1.5753188e-001
 -1.8357733e-001
 -2.0057452e-001
 -2.2581320e-001
 -2.4013639e-001
 -2.5986644e-001
 -2.6385114e-001
 -2.5464066e-001
 -2.4711755e-001
 -2.4717771e-001
 -2.4752213e-001
 -2.6429838e-001
 -2.7598468e-001
 -2.9221617e-001
 -2.7074742e-001
 -1.7960390e-001
  1.5270107e-002
  3.3461334e-001
  7.5002107e-001
  1.1789124e+000
  1.4517025e+000
  1.3276725e+000
  8.4942635e-001
  2.9299351e-001
 -1.3125808e-001
 -3.1535881e-001
 -3.2823996e-001
 -2.5786494e-001
 -2.4017764e-001
 -2.8563134e-001
 -3.3346636e-001
 -3.5787341e-001
 -3.6511408e-001
 -3.5669689e-001
 -3.4202072e-001
 -3.4220621e-001
 -3.4366349e-001
 -3.3825620e-001
 -3.4795805e-001
 -3.5565928e-001
 -3.6423664e-001
 -3.4886585e-001
 -3.3616930e-001
 -3.1661140e-001
 -3.1487511e-001
 -3.3818668e-001
 -3.3498322e-001
 -3.2534369e-001
 -3.1420596e-001
 -3.1483386e-001
 -3.2139713e-001
 -3.1385239e-001
 -3.1911778e-001
 -3.0719166e-001
 -2.9826593e-001
 -2.9638247e-001
 -2.8774268e-001
 -2.7999893e-001
 -2.9162884e-001
 -2.8102732e-001
 -2.6298120e-001
 -2.5689343e-001
 -2.5543151e-001
 -2.6276110e-001
 -2.5500023e-001
 -2.4489799e-001
 -2.4364711e-001
 -2.3836681e-001
 -2.3641435e-001
 -2.3915703e-001
 -2.4000361e-001
 -2.4009229e-001
 -2.2907705e-001
 -1.9615336e-001
 -1.7513551e-001
 -1.5549110e-001
 -1.6555256e-001
 -1.7920102e-001
 -1.9818413e-001
 -1.9362931e-001
 -1.8903801e-001
 -1.8720072e-001
 -1.7872318e-001
 -1.8069786e-001
 -1.9648294e-001
 -2.1569649e-001
 -2.1508056e-001
 -1.9485202e-001
 -1.9741327e-001
 -2.0535231e-001
 -2.0991839e-001
 -2.2633394e-001
 -2.2571007e-001
 -2.1793376e-001
 -2.0273011e-001
 -1.8273396e-001
 -1.8333005e-001
 -2.0191284e-001
 -2.2552963e-001
 -2.2351808e-001
 -2.1122367e-001
 -2.0545269e-001
 -1.8996505e-001
 -1.8913727e-001
 -2.1815016e-001
 -2.2185503e-001
 -2.2158341e-001
 -2.1723077e-001
 -2.1755209e-001
 -1.9048332e-001
 -2.0266738e-001
 -2.2111297e-001
 -2.2059257e-001
 -2.2451592e-001
 -1.9820889e-001
 -1.6630923e-001
 -1.4320037e-001
 -1.3960154e-001
 -1.3588353e-001
 -1.1992806e-001
 -8.9709182e-002
 -4.3187655e-002
 -3.1994643e-002
 -4.0167959e-002
 -5.4544960e-002
 -8.8481087e-002
 -1.1764038e-001
 -1.5757630e-001
 -1.7796575e-001
 -2.0942902e-001
 -2.3387292e-001
 -2.5632783e-001
 -2.8060333e-001
 -2.8812425e-001
 -2.7676303e-001
 -2.7875268e-001
 -2.8669681e-001
 -2.9753865e-001
 -3.1069787e-001
 -3.0223542e-001
 -3.0069841e-001
 -3.1685524e-001
 -2.9591247e-001
 -1.7826414e-001
  6.2161603e-002
  4.8303251e-001
  9.7509144e-001
  1.3599888e+000
  1.3866108e+000
  9.8432668e-001
  3.8183855e-001
 -1.0996200e-001
 -3.4044699e-001
 -3.6745387e-001
 -2.9926371e-001
 -2.5842633e-001
 -2.9366532e-001
 -3.4191820e-001
 -3.7404887e-001
 -3.9261650e-001
 -3.9405825e-001
 -3.5904872e-001
 -3.5275480e-001
 -3.7514971e-001
 -3.8265392e-001
 -3.8002096e-001
 -3.7849662e-001
 -3.6640284e-001
 -3.5081237e-001
 -3.4470960e-001
 -3.4061922e-001
 -3.5340062e-001
 -3.5803392e-001
 -3.6541053e-001
 -3.5646383e-001
 -3.3652831e-001
 -3.3759796e-001
 -3.5083766e-001
 -3.6031709e-001
 -3.4092673e-001
 -3.2292389e-001
 -3.0760238e-001
 -3.0442850e-001
 -3.0804072e-001
 -3.1695637e-001
 -3.1635213e-001
 -3.0204653e-001
 -2.9183506e-001
 -2.7455863e-001
 -2.6098379e-001
 -2.6712038e-001
 -2.7896283e-001
 -2.7473442e-001
 -2.6371553e-001
 -2.4981300e-001
 -2.3902757e-001
 -2.4464288e-001
 -2.5922128e-001
 -2.6229720e-001
 -2.4606795e-001
 -2.3950374e-001
 -2.0881605e-001
 -1.8688142e-001
 -1.7996500e-001
 -1.9595811e-001
 -1.9809707e-001
 -2.1585763e-001
 -1.9779681e-001
 -1.8077967e-001
 -1.7985655e-001
 -2.0505318e-001
 -2.2205636e-001
 -2.2645045e-001
 -2.2252825e-001
 -2.0368716e-001
 -2.0544055e-001
 -2.1092223e-001
 -2.1494126e-001
 -2.2420556e-001
 -2.3212567e-001
 -2.2911889e-001
 -2.1718706e-001
 -2.0502659e-001
 -2.0383494e-001
 -2.1548105e-001
 -2.3248117e-001
 -2.2293784e-001
 -1.9927409e-001
 -1.9114642e-001
 -2.0095177e-001
 -2.0766315e-001
 -2.2643542e-001
 -2.1958121e-001
 -2.1688933e-001
 -2.1505245e-001
 -2.0984525e-001
 -2.0348293e-001
 -2.3540722e-001
 -2.5087411e-001
 -2.4319804e-001
 -2.3510692e-001
 -2.1622972e-001
 -1.9946040e-001
 -1.8226863e-001
 -1.6623121e-001
 -1.6158979e-001
 -1.4871022e-001
 -1.2225591e-001
 -8.8956453e-002
 -4.8110295e-002
 -3.4936300e-002
 -6.0768659e-002
 -8.6617598e-002
 -8.6758216e-002
 -7.9469933e-002
 -1.0200418e-001
 -1.4588930e-001
 -2.0954852e-001
 -2.4826678e-001
 -2.6147708e-001
 -2.6880559e-001
 -2.8606468e-001
 -2.9559587e-001
 -2.9037141e-001
 -2.9184198e-001
 -2.9778031e-001
 -2.8839511e-001
 -2.8066767e-001
 -2.9842846e-001
 -3.4008643e-001
 -3.4819120e-001
 -3.0597185e-001
 -1.5378423e-001
  1.3678156e-001
  5.7861324e-001
  1.0805841e+000
  1.4188567e+000
  1.3869151e+000
  9.6700725e-001
  3.9032022e-001
 -9.1065302e-002
 -3.3074513e-001
 -3.6741993e-001
 -3.2049632e-001
 -2.9681060e-001
 -3.2772494e-001
 -3.6793145e-001
 -3.8529192e-001
 -3.8105887e-001
 -3.8040577e-001
 -3.7701401e-001
 -3.8758109e-001
 -4.0319424e-001
 -4.0535249e-001
 -3.9252269e-001
 -3.7135397e-001
 -3.6741039e-001
 -3.7386820e-001
 -3.9487490e-001
 -3.9617506e-001
 -3.7654198e-001
 -3.4244174e-001
 -3.5305967e-001
 -3.7095774e-001
 -3.7541777e-001
 -3.7170685e-001
 -3.6846815e-001
 -3.4243765e-001
 -3.2344968e-001
 -3.1762836e-001
 -3.4302176e-001
 -3.4429210e-001
 -3.3449052e-001
 -3.2760764e-001
 -3.1065775e-001
 -2.8911082e-001
 -2.7687456e-001
 -2.7136933e-001
 -2.8938364e-001
 -3.0561716e-001
 -2.9269776e-001
 -2.6212475e-001
 -2.4658621e-001
 -2.5427747e-001
 -2.5241995e-001
 -2.5547474e-001
 -2.5089109e-001
 -2.5306560e-001
 -2.3800134e-001
 -2.3918279e-001
 -2.4102906e-001
 -2.2581098e-001
 -1.9732534e-001
 -1.8429591e-001
 -1.6671333e-001
 -1.6906237e-001
 -1.6334671e-001
 -1.8335072e-001
 -2.0126810e-001
 -2.0098865e-001
 -1.9180631e-001
 -1.7100665e-001
 -1.7357475e-001
 -1.9967516e-001
 -2.1360836e-001
 -2.0975595e-001
 -2.1652804e-001
 -2.1624363e-001
 -1.9037110e-001
 -1.7979954e-001
 -2.0354692e-001
 -2.2709273e-001
 -2.1758099e-001
 -2.2086351e-001
 -2.0054963e-001
 -1.8451619e-001
 -1.8576016e-001
 -2.0776612e-001
 -2.1217256e-001
 -2.0216167e-001
 -2.0517827e-001
 -2.0707695e-001
 -1.9591174e-001
 -1.8536074e-001
 -1.8150293e-001
 -1.8876360e-001
 -2.0700475e-001
 -2.0939306e-001
 -2.0499719e-001
 -2.0233000e-001
 -2.0764566e-001
 -2.1290499e-001
 -2.0475131e-001
 -1.9906728e-001
 -1.8878869e-001
 -1.6147192e-001
 -1.4773495e-001
 -1.4097522e-001
 -1.3074146e-001
 -1.2461109e-001
 -9.9297955e-002
 -3.0719710e-002
 -1.7262212e-002
 -3.5546508e-002
 -5.6836043e-002
 -6.6678856e-002
 -7.1876528e-002
 -1.1567864e-001
 -1.4076089e-001
 -1.6923862e-001
 -2.0689702e-001
 -2.3249628e-001
 -2.4833473e-001
 -2.4450434e-001
 -2.3756152e-001
 -2.3871403e-001
 -2.7451510e-001
 -2.8327050e-001
 -2.8285485e-001
 -2.8240149e-001
 -2.7726364e-001
 -2.8987009e-001
 -2.9136410e-001
 -2.0924917e-001
 -1.6206510e-002
  3.3741333e-001
  8.3156154e-001
  1.3086005e+000
  1.4585025e+000
  1.1619214e+000
  5.8744084e-001
  2.7517298e-002
 -2.9521448e-001
 -3.5713115e-001
 -2.9478297e-001
 -2.4086968e-001
 -2.4428654e-001
 -2.9023512e-001
 -3.4932817e-001
 -3.9058931e-001
 -3.8666894e-001
 -3.5752229e-001
 -3.3679324e-001
 -3.4983649e-001
 -3.6539431e-001
 -3.7301841e-001
 -3.8341275e-001
 -3.6670458e-001
 -3.3513177e-001
 -3.3849748e-001
 -3.4353773e-001
 -3.5695565e-001
 -3.5751965e-001
 -3.4538954e-001
 -3.5076732e-001
 -3.3011682e-001
 -3.1063626e-001
 -3.1918068e-001
 -3.2134744e-001
 -3.2187908e-001
 -3.1730688e-001
 -3.1688249e-001
 -3.0975663e-001
 -2.9791949e-001
 -3.0459585e-001
 -3.0091511e-001
 -2.8474746e-001
 -2.7130656e-001
 -2.5007315e-001
 -2.4678875e-001
 -2.4570779e-001
 -2.5147700e-001
 -2.7155176e-001
 -2.8379971e-001
 -2.5740569e-001
 -2.4437283e-001
 -2.5475779e-001
 -2.4638586e-001
 -2.4577527e-001
 -2.2553336e-001
 -2.0416819e-001
 -1.9477984e-001
 -2.0127412e-001
 -1.9435720e-001
 -1.8930980e-001
 -1.7376474e-001
 -1.6607185e-001
 -1.7532896e-001
 -1.7199750e-001
 -1.8466711e-001
 -1.9160971e-001
 -2.1165640e-001
 -2.0400290e-001
 -1.9770488e-001
 -1.9190294e-001
 -1.8152597e-001
 -1.9626449e-001
 -2.1419866e-001
 -2.2358680e-001
 -2.2761317e-001
 -2.0895498e-001
 -1.9527767e-001
 -1.8885555e-001
 -1.9996826e-001
 -2.0439586e-001
 -2.0357102e-001
 -2.1025622e-001
 -2.1636304e-001
 -2.0481997e-001
 -2.1419303e-001
 -2.0312235e-001
 -1.9802178e-001
 -1.9904321e-001
 -1.9693493e-001
 -2.1575945e-001
 -2.0961769e-001
 -2.0477964e-001
 -1.9788082e-001
 -2.0761230e-001
 -2.1241061e-001
 -2.1017303e-001
 -1.9841486e-001
 -1.9961185e-001
 -2.1334133e-001
 -2.1142392e-001
 -1.9486625e-001
 -1.7193018e-001
 -1.5758063e-001
 -1.4334995e-001
 -1.2721670e-001
 -9.6713989e-002
 -1.1836385e-001
 -1.2856920e-001
 -8.4178267e-002
 -2.5419716e-002
 -1.0135356e-002
 -3.9676002e-002
 -6.7739006e-002
 -1.0015160e-001
 -1.1902235e-001
 -1.3996310e-001
 -1.5147310e-001
 -1.8153670e-001
 -2.1795519e-001
 -2.4740654e-001
 -2.8291527e-001
 -2.8574695e-001
 -2.8111239e-001
 -2.7133454e-001
 -2.6703108e-001
 -2.8290515e-001
 -2.8821490e-001
 -2.8978877e-001
 -3.0684052e-001
 -3.4549029e-001
 -3.0689146e-001
 -1.6526451e-001
  9.8737198e-002
  4.8619846e-001
  9.5007160e-001
  1.3336945e+000
  1.3916803e+000
  1.0444133e+000
  4.7112426e-001
 -2.2458435e-002
 -2.9038945e-001
 -3.5870522e-001
 -3.1153308e-001
 -2.6874392e-001
 -2.8663901e-001
 -3.2066081e-001
 -3.5646394e-001
 -3.6562500e-001
 -3.6281734e-001
 -3.4661680e-001
 -3.5038926e-001
 -3.4799437e-001
 -3.5587986e-001
 -3.6221327e-001
 -3.5230966e-001
 -3.4891188e-001
 -3.3428468e-001
 -3.4049874e-001
 -3.3143548e-001
 -3.4224534e-001
 -3.6611274e-001
 -3.5272757e-001
 -3.2906704e-001
 -2.9627150e-001
 -3.0137998e-001
 -3.1731092e-001
 -3.2623904e-001
 -3.1961009e-001
 -3.1115785e-001
 -3.0232910e-001
 -2.8408300e-001
 -2.6440805e-001
 -2.7698206e-001
 -3.0222329e-001
 -2.9882743e-001
 -2.6821563e-001
 -2.4403760e-001
 -2.3335460e-001
 -2.4328042e-001
 -2.5698097e-001
 -2.5410457e-001
 -2.4234842e-001
 -2.2971753e-001
 -2.1783467e-001
 -2.3132009e-001
 -2.3020767e-001
 -2.2451762e-001
 -2.1401474e-001
 -2.0282304e-001
 -1.7468467e-001
 -1.6942800e-001
 -1.6144180e-001
 -1.5697168e-001
 -1.7035659e-001
 -1.8110680e-001
 -1.6840685e-001
 -1.6096923e-001
 -1.6847673e-001
 -1.7966291e-001
 -1.7430783e-001
 -1.7524579e-001
 -1.8647636e-001
 -1.8873571e-001
 -1.7148848e-001
 -1.7621181e-001
 -1.8959228e-001
 -2.0111503e-001
 -1.9834988e-001
 -2.0258586e-001
 -1.8445759e-001
 -1.6789251e-001
 -1.7882346e-001
 -1.8088820e-001
 -1.8573660e-001
 -1.8015215e-001
 -1.6677125e-001
 -1.5281012e-001
 -1.5087707e-001
 -1.7979105e-001
 -2.1103130e-001
 -2.0391274e-001
 -1.8990051e-001
 -1.7662097e-001
 -1.6838134e-001
 -1.6079442e-001
 -1.8338046e-001
 -1.9212388e-001
 -1.8479919e-001
 -1.6505599e-001
 -1.4932394e-001
 -1.5380502e-001
 -1.6514725e-001
 -1.7121661e-001
 -1.5641696e-001
 -1.3317740e-001
 -1.2290031e-001
 -1.1125956e-001
 -7.4864053e-002
 -4.2853945e-002
 -4.4108783e-002
 -4.2236447e-002
 -3.6726807e-002
 -6.1895831e-003
 -1.4990365e-003
 -1.1133048e-002
 -2.6874087e-002
 -5.4142330e-002
 -9.1005850e-002
 -1.2504086e-001
 -1.4304281e-001
 -1.5481471e-001
 -1.6753659e-001
 -1.9888200e-001
 -2.2940074e-001
 -2.3804862e-001
 -2.3498202e-001
 -2.3693038e-001
 -2.3716752e-001
 -2.2751598e-001
 -2.3219542e-001
 -2.4004603e-001
 -2.6052534e-001
 -2.7365681e-001
 -2.6190353e-001
 -1.9353800e-001
  5.1767050e-003
  3.4431515e-001
  7.9865366e-001
  1.2442056e+000
  1.5054277e+000
  1.3620365e+000
  8.2904230e-001
  2.1497201e-001
 -2.0028163e-001
 -3.3632153e-001
 -2.9599977e-001
 -2.2207516e-001
 -2.0161637e-001
 -2.4095492e-001
 -3.0772336e-001
 -3.4197549e-001
 -3.2895764e-001
 -2.9587088e-001
 -2.6497056e-001
 -2.6524923e-001
 -2.8489266e-001
 -3.1567214e-001
 -3.2109848e-001
 -2.9347450e-001
 -2.5373077e-001
 -2.5654109e-001
 -2.7957061e-001
 -2.6871490e-001
 -2.8174382e-001
 -2.9469951e-001
 -2.9062139e-001
 -2.7289849e-001
 -2.5856310e-001
 -2.5437149e-001
 -2.4899970e-001
 -2.5549099e-001
 -2.6140448e-001
 -2.5186248e-001
 -2.3164292e-001
 -2.1620374e-001
 -1.8991400e-001
 -1.9591930e-001
 -2.2202165e-001
 -2.3353293e-001
 -2.0396154e-001
 -1.8881092e-001
 -1.7680497e-001
 -1.6463121e-001
 -1.7395463e-001
 -1.7575176e-001
 -1.6945139e-001
 -1.6633813e-001
 -1.8267627e-001
 -1.8353196e-001
 -1.7796935e-001
 -1.7528907e-001
 -1.5010289e-001
 -1.1663981e-001
 -9.3121590e-002
 -9.2254237e-002
 -8.4690237e-002
 -9.4533575e-002
 -1.0050723e-001
 -1.0049460e-001
 -1.0388816e-001
 -1.0634863e-001
 -9.8700029e-002
 -1.1183737e-001
 -1.2293673e-001
 -1.2662544e-001
 -1.2450425e-001
 -1.0563845e-001
 -1.0142322e-001
 -1.0525157e-001
 -1.2555772e-001
 -1.4730469e-001
 -1.2934559e-001
 -1.1324017e-001
 -9.5433982e-002
 -9.2472721e-002
 -9.7258149e-002
 -1.0630055e-001
 -1.0514227e-001
 -9.7476337e-002
 -8.2890551e-002
 -7.1867859e-002
 -8.5728884e-002
 -1.0871816e-001
 -1.0810968e-001
 -9.4573499e-002
 -8.7833285e-002
 -8.5049177e-002
 -1.0456676e-001
 -1.0342435e-001
 -9.1474920e-002
 -8.2879085e-002
 -9.2358875e-002
 -8.1840631e-002
 -5.4549059e-002
 -3.7702417e-002
 -1.8273698e-002
 -1.6299041e-002
 -1.9968743e-002
  1.3736366e-002
  6.5057907e-002
  7.1570873e-002
  4.8777885e-002
  5.2534263e-002
  5.1138462e-002
  3.3867490e-002
 -1.0892768e-003
 -3.6786781e-002
 -6.9556201e-002
 -9.5843674e-002
 -1.2420670e-001
 -1.6732034e-001
 -1.8528228e-001
 -1.7240975e-001
 -1.5060812e-001
 -1.6744963e-001
 -1.8006266e-001
 -1.9691977e-001
 -1.9701955e-001
 -1.9381890e-001
 -1.8921435e-001
 -1.7155970e-001
 -1.0846681e-001
  4.7799206e-002
  3.3520185e-001
  7.6169009e-001
  1.2393899e+000
  1.5721253e+000
  1.5539599e+000
  1.1285230e+000
  5.3077492e-001
  2.0273760e-002
 -2.4048320e-001
 -2.5789004e-001
 -1.8242578e-001
 -1.4966996e-001
 -1.8285155e-001
 -2.2914652e-001
 -2.6358258e-001
 -2.7844765e-001
 -2.7501895e-001
 -2.5003612e-001
 -2.4488435e-001
 -2.5433926e-001
 -2.5384231e-001
 -2.5781567e-001
 -2.5911430e-001
 -2.6428553e-001
 -2.4853813e-001
 -2.4140757e-001
 -2.5351528e-001
 -2.7720588e-001
 -2.7456833e-001
 -2.6242658e-001
 -2.3788706e-001
 -2.3078856e-001
 -2.4006301e-001
 -2.3830685e-001
 -2.2448232e-001
 -2.3384997e-001
 -2.2669600e-001
 -2.0272697e-001
 -2.1321863e-001
 -2.1409463e-001
 -2.1022860e-001
 -2.0058750e-001
 -1.8880609e-001
 -1.6175809e-001
 -1.4808142e-001
 -1.6762459e-001
 -1.8838754e-001
 -1.8997879e-001
 -1.7213287e-001
 -1.4636495e-001
 -1.2361107e-001
 -1.3821920e-001
 -1.5077708e-001
 -1.5442829e-001
 -1.5935384e-001
 -1.6156664e-001
 -1.3348664e-001
 -1.1010447e-001
 -9.3863008e-002
 -6.9360170e-002
 -8.2638789e-002
 -8.6776155e-002
 -7.6243910e-002
 -7.6619378e-002
 -6.4762827e-002
 -7.4532024e-002
 -1.0455030e-001
 -1.2147107e-001
 -1.3072560e-001
 -1.1872243e-001
 -9.8779690e-002
 -7.9042844e-002
 -8.0346811e-002
 -1.0069997e-001
 -1.2714570e-001
 -1.2028193e-001
 -1.1211504e-001
 -8.7543058e-002
 -8.2739818e-002
 -1.0651985e-001
 -1.0617710e-001
 -1.0282918e-001
 -1.0915045e-001
 -9.2855238e-002
 -7.0537345e-002
 -7.1461146e-002
 -8.6710786e-002
 -9.1841427e-002
 -9.6182246e-002
 -8.3784298e-002
 -5.7649706e-002
 -4.8194282e-002
 -5.5553971e-002
 -6.8248394e-002
 -9.3509012e-002
 -1.0416628e-001
 -8.5782868e-002
 -6.5020762e-002
 -5.0542660e-002
 -4.7307318e-002
 -4.8643857e-002
 -3.3213507e-002
 -1.6147906e-002
 -2.2492563e-003
  2.4493975e-002
  6.5107860e-002
  9.8305048e-002
  8.6390672e-002
  5.7257525e-002
  5.4600680e-002
  4.8018610e-002
  2.3749634e-002
  2.8657050e-003
 -3.4209510e-002
 -6.9498357e-002
 -1.1110358e-001
 -1.3353884e-001
 -1.3388676e-001
 -1.5690710e-001
 -1.6821425e-001
 -1.6675563e-001
 -1.6043450e-001
 -1.6048397e-001
 -1.5549419e-001
 -1.7197797e-001
 -1.7618645e-001
 -1.3523722e-001
  3.3771981e-002
  3.5208335e-001
  7.9726540e-001
  1.2813287e+000
  1.6029721e+000
  1.5382349e+000
  1.0617117e+000
  4.5614555e-001
  5.9957522e-003
 -1.8963044e-001
 -1.9098335e-001
 -1.3092871e-001
 -1.4632757e-001
 -1.9601241e-001
 -2.5177462e-001
 -2.7364083e-001
 -2.6305622e-001
 -2.2668686e-001
 -2.5312483e-001
 -2.7371169e-001
 -2.7322056e-001
 -2.6280389e-001
 -2.4878531e-001
 -2.4135487e-001
 -2.3994051e-001
 -2.4481357e-001
 -2.4695001e-001
 -2.5734529e-001
 -2.6584485e-001
 -2.7777307e-001
 -2.3472058e-001
 -2.2164171e-001
 -2.4758954e-001
 -2.5409552e-001
 -2.5844900e-001
 -2.4038401e-001
 -2.1939699e-001
 -1.9656116e-001
 -1.9701295e-001
 -2.1317324e-001
 -2.2065512e-001
 -2.1980172e-001
 -2.0691611e-001
 -1.9253707e-001
 -1.7846334e-001
 -1.8249726e-001
 -1.7486461e-001
 -1.7117332e-001
 -1.5662164e-001
 -1.5611521e-001
 -1.4339829e-001
 -1.4775806e-001
 -1.4552724e-001
 -1.4559297e-001
 -1.5059407e-001
 -1.5084979e-001
 -1.4148675e-001
 -1.2591704e-001
 -1.1424106e-001
 -1.0591303e-001
 -1.0118329e-001
 -1.1801117e-001
 -1.3810824e-001
 -1.2483289e-001
 -1.1329529e-001
 -1.1350198e-001
 -1.3169299e-001
 -1.3417131e-001
 -1.3734964e-001
 -1.5406285e-001
 -1.5741270e-001
 -1.4638427e-001
 -1.4267305e-001
 -1.5006257e-001
 -1.6370215e-001
 -1.6757417e-001
 -1.5099499e-001
 -1.3783688e-001
 -1.3234002e-001
 -1.3407777e-001
 -1.4039444e-001
 -1.5251082e-001
 -1.5987326e-001
 -1.5218083e-001
 -1.3381161e-001
 -1.1625060e-001
 -1.2817159e-001
 -1.5394388e-001
 -1.4720447e-001
 -1.3739518e-001
 -1.1456501e-001
 -1.2180624e-001
 -1.4372305e-001
 -1.4666973e-001
 -1.4410737e-001
 -1.3565673e-001
 -1.1368295e-001
 -1.1014445e-001
 -1.2086447e-001
 -1.2294957e-001
 -1.1952492e-001
 -9.3692659e-002
 -5.9192292e-002
 -2.4230669e-002
 -8.4225011e-003
 -5.8746169e-003
 -2.6419364e-003
 -7.5027087e-003
 -1.1485075e-002
  4.0294661e-003
  2.7032842e-002
  2.2154700e-002
 -4.0073084e-002
 -1.1188575e-001
 -1.3619487e-001
 -1.5585754e-001
 -1.6066198e-001
 -1.9314581e-001
 -2.0677818e-001
 -2.2720562e-001
 -2.4417056e-001
 -2.3985836e-001
 -2.4267575e-001
 -2.2524326e-001
 -2.1706944e-001
 -2.2541623e-001
 -2.5476650e-001
 -2.4494585e-001
 -1.7945453e-001
  3.8723081e-003
  3.1320549e-001
  7.8239014e-001
  1.2415383e+000
  1.5287432e+000
  1.4872118e+000
  1.0674802e+000
  4.7680895e-001
  1.0728194e-002
 -2.1096112e-001
 -2.4845345e-001
 -2.2187944e-001
 -2.2019600e-001
 -2.4852964e-001
 -2.7892371e-001
 -3.0343516e-001
 -3.2723021e-001
 -3.2307278e-001
 -3.1690227e-001
 -3.1678173e-001
 -3.2672208e-001
 -3.3426410e-001
 -3.3057501e-001
 -3.4052050e-001
 -3.4204398e-001
 -3.3156886e-001
 -3.2628406e-001
 -3.1605103e-001
 -3.1210142e-001
 -3.1269111e-001
 -3.2840748e-001
 -3.2601467e-001
 -3.0801623e-001
 -3.0982640e-001
 -3.1754726e-001
 -2.8779112e-001
 -2.8915828e-001
 -3.1697753e-001
 -3.3237331e-001
 -3.1458378e-001
 -2.9407547e-001
 -2.5614351e-001
 -2.4814060e-001
 -2.5810703e-001
 -2.7898438e-001
 -2.8391186e-001
 -2.6841977e-001
 -2.4820846e-001
 -2.2032880e-001
 -2.0360778e-001
 -2.2239560e-001
 -2.3124051e-001
 -2.2034696e-001
 -2.3847839e-001
 -2.4376887e-001
 -2.4218571e-001
 -2.1320551e-001
 -1.9130358e-001
 -1.9031821e-001
 -1.9473119e-001
 -1.9708978e-001
 -1.8000866e-001
 -1.7646267e-001
 -1.7228832e-001
 -1.9106814e-001
 -1.9943873e-001
 -1.8545679e-001
 -1.7469699e-001
 -1.9074035e-001
 -2.0604300e-001
 -2.2336029e-001
 -2.2686139e-001
 -2.2086617e-001
 -2.0935735e-001
 -1.9558877e-001
 -1.9578370e-001
 -2.0629820e-001
 -2.1658874e-001
 -2.2699729e-001
 -2.1903879e-001
 -2.0780093e-001
 -1.9329303e-001
 -1.9672077e-001
 -2.0273851e-001
 -2.1341452e-001
 -2.1636471e-001
 -2.0381381e-001
 -1.8431050e-001
 -1.7480784e-001
 -1.8476301e-001
 -1.9201359e-001
 -2.0270941e-001
 -2.1222216e-001
 -1.8478010e-001
 -1.7386027e-001
 -1.6187762e-001
 -1.7708412e-001
 -2.0262831e-001
 -2.3096326e-001
 -2.2038006e-001
 -1.9485055e-001
 -1.7070649e-001
 -1.5717018e-001
 -1.4594458e-001
 -1.4438231e-001
 -1.3528108e-001
 -1.3194023e-001
 -1.1145769e-001
 -7.3925167e-002
 -3.4031536e-002
 -1.3468243e-002
 -2.8242497e-002
 -5.1088001e-002
 -5.9577492e-002
 -5.8801514e-002
 -5.5544351e-002
 -7.9425447e-002
 -1.1750330e-001
 -1.4781825e-001
 -1.8461536e-001
 -2.3470432e-001
 -2.4085287e-001
 -2.5572658e-001
 -2.6231851e-001
 -2.7156280e-001
 -2.8299375e-001
 -2.8473041e-001
 -2.8699602e-001
 -2.7025638e-001
 -2.5606177e-001
 -2.7440860e-001
 -3.2071827e-001
 -3.4081765e-001
 -2.8931953e-001
 -1.2949246e-001
  1.3608980e-001
  5.3180250e-001
  9.9647789e-001
  1.3889957e+000
  1.4699665e+000
  1.1723567e+000
  6.6563766e-001
  1.3897145e-001
 -1.9269238e-001
 -3.3659633e-001
 -3.3554072e-001
 -2.8037468e-001
 -2.7359027e-001
 -3.0824057e-001
 -3.6336136e-001
 -3.8556325e-001
 -3.9882192e-001
 -3.9702483e-001
 -3.9156740e-001
 -4.1278538e-001
 -4.0188377e-001
 -3.9019018e-001
 -3.9458332e-001
 -3.9883546e-001
 -4.0029574e-001
 -3.8627053e-001
 -3.8254721e-001
 -3.8673804e-001
 -3.7587826e-001
 -3.7819854e-001
 -3.9360046e-001
 -3.9308106e-001
 -3.7299905e-001
 -3.5410591e-001
 -3.4994788e-001
 -3.4841765e-001
 -3.5692338e-001
 -3.4244150e-001
 -3.4547311e-001
 -3.5195505e-001
 -3.5091158e-001
 -3.4391284e-001
 -3.2849279e-001
 -3.2511982e-001
 -3.2240531e-001
 -2.9945082e-001
 -2.8265704e-001
 -2.8304131e-001
 -2.8875806e-001
 -2.9416533e-001
