 -4.5117407e-001
 -6.1517384e-001
 -5.6178266e-001
 -5.9017039e-001
 -5.7502689e-001
 -5.9083532e-001
 -5.7762077e-001
 -5.6605490e-001
 -5.6788590e-001
 -5.8597716e-001
 -5.9018170e-001
 -6.0628638e-001
 -5.9717913e-001
 -5.8059228e-001
 -5.8129113e-001
 -5.8921323e-001
 -6.0120875e-001
 -6.0023632e-001
 -6.0415691e-001
 -5.9118338e-001
 -5.8320404e-001
 -5.7919598e-001
 -5.8326059e-001
 -5.8249328e-001
 -6.0382295e-001
 -5.9489953e-001
 -5.9450881e-001
 -5.8824205e-001
 -5.7736605e-001
 -5.8958427e-001
 -6.0375921e-001
 -6.1332999e-001
 -6.1028250e-001
 -5.9926930e-001
 -5.8920368e-001
 -5.9531840e-001
 -6.1076433e-001
 -6.0690552e-001
 -6.0063913e-001
 -5.9167054e-001
 -5.7613696e-001
 -5.7436676e-001
 -5.7643962e-001
 -5.8713743e-001
 -5.9386192e-001
 -5.7540891e-001
 -5.5035739e-001
 -5.2848180e-001
 -5.1234891e-001
 -4.9287257e-001
 -4.9333047e-001
 -4.8344648e-001
 -4.5797340e-001
 -4.3900415e-001
 -4.3171060e-001
 -4.5176304e-001
 -4.7880306e-001
 -4.8862145e-001
 -4.9022101e-001
 -4.7972859e-001
 -4.7201810e-001
 -4.7765770e-001
 -5.2032861e-001
 -5.5403518e-001
 -5.7813598e-001
 -5.8459095e-001
 -5.7127357e-001
 -5.6360050e-001
 -5.6743560e-001
 -5.7926903e-001
 -6.0372879e-001
 -6.0124190e-001
 -5.9532577e-001
 -5.8734209e-001
 -5.5747995e-001
 -5.7281582e-001
 -5.8483531e-001
 -5.8989635e-001
 -5.7922669e-001
 -5.7667573e-001
 -5.4187364e-001
 -5.2629521e-001
 -5.2211694e-001
 -5.1388519e-001
 -5.0873148e-001
 -4.5016788e-001
 -2.8648396e-001
  2.7408038e-002
  5.6024321e-001
  1.2220894e+000
  1.6658614e+000
  1.5134457e+000
  6.3627874e-001
 -5.5513283e-001
 -1.3031896e+000
 -1.2528108e+000
 -8.4383333e-001
 -5.2721764e-001
 -4.1939080e-001
 -4.3892267e-001
 -4.9285316e-001
 -5.1360470e-001
 -5.1382680e-001
 -4.9983696e-001
 -5.0014573e-001
 -4.9156702e-001
 -4.8895623e-001
 -4.8141817e-001
 -4.7769894e-001
 -4.7997455e-001
 -4.8668408e-001
 -5.0631126e-001
 -4.9067308e-001
 -4.7083549e-001
 -4.7165170e-001
 -4.6351050e-001
 -4.8257578e-001
 -4.9199947e-001
 -4.7445063e-001
 -4.7420281e-001
 -4.6644118e-001
 -4.6260762e-001
 -4.6783387e-001
 -4.8679344e-001
 -4.8533584e-001
 -4.9150678e-001
 -4.8813165e-001
 -4.6652220e-001
 -4.6147645e-001
 -4.6637215e-001
 -4.7841505e-001
 -4.8165367e-001
 -4.6592886e-001
 -4.6829057e-001
 -4.4469825e-001
 -4.3941392e-001
 -4.4125600e-001
 -4.5006063e-001
 -4.5796681e-001
 -4.3725997e-001
 -4.3140248e-001
 -4.1815129e-001
 -4.1537666e-001
 -4.2559763e-001
 -4.2315042e-001
 -4.2035280e-001
 -4.1041332e-001
 -3.9015762e-001
 -3.7064448e-001
 -3.8299157e-001
 -3.9424271e-001
 -3.9282483e-001
 -3.8891064e-001
 -3.6540340e-001
 -3.6275164e-001
 -3.6737615e-001
 -3.7834323e-001
 -3.8628506e-001
 -3.8108538e-001
 -3.7738910e-001
 -3.6149680e-001
 -3.5013674e-001
 -3.6312629e-001
 -3.5869216e-001
 -3.6974314e-001
 -3.7024383e-001
 -3.7642711e-001
 -3.7353987e-001
 -3.8727566e-001
 -4.0433204e-001
 -4.4539629e-001
 -4.7441809e-001
 -4.9271740e-001
 -4.9731889e-001
 -5.1037553e-001
 -5.3732720e-001
 -5.4925598e-001
 -5.6821724e-001
 -5.7225832e-001
 -5.7310350e-001
 -5.6002201e-001
 -5.6093940e-001
 -5.8096038e-001
 -5.8221808e-001
 -5.9351246e-001
 -5.8679382e-001
 -5.7858167e-001
 -5.5856029e-001
 -5.5022592e-001
 -5.6840145e-001
 -5.8293575e-001
 -5.7751459e-001
 -5.6573175e-001
 -5.4807914e-001
 -5.3945002e-001
 -5.4127688e-001
 -5.5249609e-001
 -5.6339494e-001
 -5.5118270e-001
 -5.4087415e-001
 -5.2382273e-001
 -5.2587623e-001
 -5.2304216e-001
 -5.4786934e-001
 -5.5746782e-001
 -5.5058966e-001
 -5.5319744e-001
 -5.4263942e-001
 -5.4138687e-001
 -5.6203113e-001
 -5.7019220e-001
 -5.7721367e-001
 -5.7740456e-001
 -5.6822736e-001
 -5.5734931e-001
 -5.7050832e-001
 -5.7240062e-001
 -5.9009638e-001
 -5.8878079e-001
 -5.9338088e-001
 -5.8243649e-001
 -5.7709617e-001
 -5.9211905e-001
 -6.0759715e-001
 -6.1140829e-001
 -6.1321293e-001
 -6.0889807e-001
 -5.9461872e-001
 -5.8705067e-001
 -5.9138436e-001
 -6.0510934e-001
 -6.1858296e-001
 -6.1286865e-001
 -5.9180845e-001
 -5.8970987e-001
 -5.8704119e-001
 -6.0204701e-001
 -6.1245840e-001
 -6.1193283e-001
 -6.0706947e-001
 -5.9550109e-001
 -5.9112044e-001
 -6.0106512e-001
 -6.0083505e-001
 -5.9824545e-001
 -5.9113380e-001
 -5.6546611e-001
 -5.3887685e-001
 -5.1522852e-001
 -5.1623147e-001
 -5.0178162e-001
 -4.9101724e-001
 -4.8263872e-001
 -4.6092634e-001
 -4.4261080e-001
 -4.7337616e-001
 -4.8362500e-001
 -4.8132621e-001
 -4.8369290e-001
 -4.8241606e-001
 -4.8544953e-001
 -5.1752388e-001
 -5.5563918e-001
 -5.8935689e-001
 -6.1223324e-001
 -6.1574813e-001
 -6.0019636e-001
 -5.9460095e-001
 -6.0450516e-001
 -6.0931847e-001
 -6.2782274e-001
 -6.2647962e-001
 -6.2259884e-001
 -6.0910953e-001
 -6.1425191e-001
 -6.0730130e-001
 -6.0055201e-001
 -6.0571100e-001
 -5.9771785e-001
 -5.8581531e-001
 -5.5388555e-001
 -5.3693376e-001
 -5.2202320e-001
 -4.9364900e-001
 -3.7478405e-001
 -8.7052162e-002
  3.9624081e-001
  1.0510124e+000
  1.5653515e+000
  1.4264286e+000
  4.8106525e-001
 -7.1765902e-001
 -1.3684754e+000
 -1.1417364e+000
 -6.9665605e-001
 -4.2330815e-001
 -4.1826532e-001
 -4.9805129e-001
 -5.5126637e-001
 -5.7133412e-001
 -5.3709399e-001
 -5.1175152e-001
 -5.2437874e-001
 -5.3271176e-001
 -5.2874990e-001
 -5.2423071e-001
 -5.2168654e-001
 -5.0265591e-001
 -5.0288480e-001
 -5.1267498e-001
 -5.1833435e-001
 -5.2557527e-001
 -5.1069402e-001
 -4.9376228e-001
 -4.8647013e-001
 -4.8797486e-001
 -5.0289038e-001
 -5.1192319e-001
 -5.1381621e-001
 -5.0601942e-001
 -4.8843072e-001
 -4.7938987e-001
 -4.8252315e-001
 -4.9843357e-001
 -5.1155535e-001
 -5.0864568e-001
 -4.9685131e-001
 -4.6926464e-001
 -4.6681094e-001
 -4.6991121e-001
 -4.9262537e-001
 -4.9691083e-001
 -4.9166525e-001
 -4.8353476e-001
 -4.6180060e-001
 -4.6989366e-001
 -4.6805237e-001
 -4.8352755e-001
 -4.8124764e-001
 -4.7450164e-001
 -4.5964859e-001
 -4.4106515e-001
 -4.3939658e-001
 -4.3824797e-001
 -4.3216885e-001
 -4.3595245e-001
 -4.1890835e-001
 -4.1179610e-001
 -4.0704479e-001
 -4.1312233e-001
 -4.0952455e-001
 -4.1566465e-001
 -4.2318043e-001
 -4.0807006e-001
 -3.8822580e-001
 -3.8481111e-001
 -3.9767615e-001
 -4.1779252e-001
 -4.1662264e-001
 -4.1273701e-001
 -3.9977802e-001
 -3.8491879e-001
 -3.9472405e-001
 -4.0062946e-001
 -4.2972493e-001
 -4.4084452e-001
 -4.4896630e-001
 -4.5670002e-001
 -4.8279549e-001
 -5.0696109e-001
 -5.3096574e-001
 -5.6447082e-001
 -5.7327342e-001
 -5.9793619e-001
 -5.9455931e-001
 -5.9685637e-001
 -6.1028245e-001
 -6.2413860e-001
 -6.3993497e-001
 -6.4100799e-001
 -6.3173052e-001
 -6.1612181e-001
 -6.1325102e-001
 -6.2078092e-001
 -6.3189429e-001
 -6.2941793e-001
 -6.1229475e-001
 -5.8691744e-001
 -5.8315458e-001
 -5.8275533e-001
 -6.0231009e-001
 -6.0459728e-001
 -6.0381693e-001
 -5.8811987e-001
 -5.7327117e-001
 -5.8284527e-001
 -5.8160885e-001
 -5.9845563e-001
 -6.0210704e-001
 -5.9947910e-001
 -5.9585642e-001
 -5.9888056e-001
 -5.9907091e-001
 -6.2009444e-001
 -6.1478068e-001
 -6.1554111e-001
 -6.1797492e-001
 -6.0746311e-001
 -6.0017462e-001
 -6.1226959e-001
 -6.4604492e-001
 -6.5036489e-001
 -6.3809189e-001
 -6.3653026e-001
 -6.2317314e-001
 -6.3033407e-001
 -6.4584939e-001
 -6.5692323e-001
 -6.4919030e-001
 -6.4864311e-001
 -6.3798858e-001
 -6.4574173e-001
 -6.4280092e-001
 -6.5144548e-001
 -6.6083925e-001
 -6.5682195e-001
 -6.5319312e-001
 -6.2251140e-001
 -6.1107872e-001
 -6.0238006e-001
 -5.9576060e-001
 -5.8261423e-001
 -5.4835752e-001
 -5.1368513e-001
 -4.7916095e-001
 -4.9461143e-001
 -5.1011983e-001
 -5.2611552e-001
 -5.2337956e-001
 -5.1639650e-001
 -5.1307163e-001
 -5.1872754e-001
 -5.3709824e-001
 -5.7674987e-001
 -6.2092914e-001
 -6.4126843e-001
 -6.4496248e-001
 -6.3413071e-001
 -6.3686953e-001
 -6.5101276e-001
 -6.6882964e-001
 -6.6724272e-001
 -6.6994630e-001
 -6.5938828e-001
 -6.4480707e-001
 -6.5020789e-001
 -6.6181326e-001
 -6.6969168e-001
 -6.7922634e-001
 -6.6657160e-001
 -6.4526337e-001
 -6.2898062e-001
 -6.2868209e-001
 -6.3303467e-001
 -6.1344719e-001
 -6.0014303e-001
 -5.8424364e-001
 -5.2094225e-001
 -3.8563479e-001
 -9.9205308e-002
  3.7355887e-001
  1.0028141e+000
  1.5580577e+000
  1.6879230e+000
  1.1670880e+000
  1.1786868e-001
 -9.3609648e-001
 -1.3775176e+000
 -1.1355674e+000
 -7.2850022e-001
 -5.0123005e-001
 -4.5450678e-001
 -5.1078475e-001
 -5.6768840e-001
 -5.8573755e-001
 -5.7813821e-001
 -5.5823893e-001
 -5.4492543e-001
 -5.3057784e-001
 -5.4715077e-001
 -5.5646757e-001
 -5.6036305e-001
 -5.6244469e-001
 -5.3861403e-001
 -5.2540788e-001
 -5.3078926e-001
 -5.4773998e-001
 -5.4710468e-001
 -5.4692827e-001
 -5.3827020e-001
 -5.2888412e-001
 -5.2347509e-001
 -5.2294856e-001
 -5.3247553e-001
 -5.2352453e-001
 -5.4236231e-001
 -5.2881901e-001
 -5.0988650e-001
 -5.2324485e-001
 -5.1241000e-001
 -5.1757078e-001
 -5.2125408e-001
 -5.1269313e-001
 -4.9663000e-001
 -4.8094652e-001
 -4.8792664e-001
 -4.9577841e-001
 -4.9791035e-001
 -5.0639301e-001
 -4.9424886e-001
 -4.7752689e-001
 -4.6864194e-001
 -4.6498593e-001
 -4.7054500e-001
 -4.6976675e-001
 -4.5903443e-001
 -4.4731880e-001
 -4.3349953e-001
 -4.2295505e-001
 -4.3273745e-001
 -4.3702038e-001
 -4.2298633e-001
 -4.1551884e-001
 -4.0346628e-001
 -3.7711193e-001
 -3.7783708e-001
 -3.7475098e-001
 -3.8256099e-001
 -3.9163828e-001
 -3.8402013e-001
 -3.7674806e-001
 -3.5970906e-001
 -3.6668044e-001
 -3.7603605e-001
 -3.9005474e-001
 -3.8772025e-001
 -4.0148872e-001
 -4.0691544e-001
 -4.3067335e-001
 -4.7948298e-001
 -4.9530250e-001
 -5.2818411e-001
 -5.5109406e-001
 -5.6519245e-001
 -5.7625840e-001
 -5.9337105e-001
 -6.2688638e-001
 -6.4873811e-001
 -6.5216440e-001
 -6.5299553e-001
 -6.3807349e-001
 -6.4177103e-001
 -6.5655046e-001
 -6.5863346e-001
 -6.6198522e-001
 -6.5411864e-001
 -6.5295667e-001
 -6.3952378e-001
 -6.2575867e-001
 -6.3135452e-001
 -6.3316435e-001
 -6.3110658e-001
 -6.1874090e-001
 -6.1102375e-001
 -5.9469526e-001
 -5.9087096e-001
 -5.9795649e-001
 -6.0090680e-001
 -6.0608105e-001
 -5.9389222e-001
 -5.8264059e-001
 -5.8226779e-001
 -5.9311754e-001
 -6.0122342e-001
 -6.0659996e-001
 -6.0983634e-001
 -5.9896249e-001
 -5.9263119e-001
 -6.0954668e-001
 -6.1774408e-001
 -6.2740693e-001
 -6.3572635e-001
 -6.2446296e-001
 -6.2328208e-001
 -6.1329085e-001
 -6.1600189e-001
 -6.2606996e-001
 -6.5495390e-001
 -6.4562072e-001
 -6.3537928e-001
 -6.2443123e-001
 -6.1814805e-001
 -6.3289901e-001
 -6.3771183e-001
 -6.4954461e-001
 -6.3913185e-001
 -6.3695160e-001
 -6.3438307e-001
 -6.2770186e-001
 -6.4074144e-001
 -6.4802726e-001
 -6.5632253e-001
 -6.5381875e-001
 -6.4235538e-001
 -6.3606799e-001
 -6.3914572e-001
 -6.5470133e-001
 -6.4856982e-001
 -6.5125628e-001
 -6.5502353e-001
 -6.2673319e-001
 -6.3017244e-001
 -6.4438167e-001
 -6.5202501e-001
 -6.4047310e-001
 -6.3526580e-001
 -6.1945849e-001
 -6.0584750e-001
 -5.8095997e-001
 -5.6803386e-001
 -5.7959150e-001
 -5.5383772e-001
 -5.4031600e-001
 -5.0740076e-001
 -4.9436008e-001
 -4.8572587e-001
 -4.9787006e-001
 -5.1909443e-001
 -5.3224367e-001
 -5.2471989e-001
 -5.0213734e-001
 -4.9949079e-001
 -5.1907646e-001
 -5.5193650e-001
 -5.8053760e-001
 -6.0341555e-001
 -6.1464598e-001
 -6.0608969e-001
 -6.1230346e-001
 -6.2246940e-001
 -6.3985603e-001
 -6.3723073e-001
 -6.3173224e-001
 -6.3201554e-001
 -6.2059892e-001
 -6.2938915e-001
 -6.3805305e-001
 -6.4198426e-001
 -6.3979003e-001
 -6.2796232e-001
 -6.1008052e-001
 -6.0333021e-001
 -5.9745663e-001
 -6.0305566e-001
 -5.9427925e-001
 -5.8619567e-001
 -5.5248827e-001
 -5.2202707e-001
 -4.7928016e-001
 -3.4075715e-001
 -3.9926568e-002
  4.9986089e-001
  1.1707431e+000
  1.6729746e+000
  1.6641498e+000
  9.5394582e-001
 -1.5914632e-001
 -1.0877452e+000
 -1.3752251e+000
 -1.0786305e+000
 -6.9816755e-001
 -4.8407689e-001
 -4.4368766e-001
 -4.9115330e-001
 -5.4620007e-001
 -5.4946945e-001
 -5.3860656e-001
 -5.1416262e-001
 -5.0759956e-001
 -5.2146125e-001
 -5.2919958e-001
 -5.3366579e-001
 -5.2047515e-001
 -5.1077396e-001
 -5.0044494e-001
 -5.0528196e-001
 -5.1630103e-001
 -5.2780146e-001
 -5.2587880e-001
 -5.0162024e-001
 -4.9983212e-001
 -4.9271792e-001
 -5.0252046e-001
 -5.1000620e-001
 -5.1586821e-001
 -5.1161826e-001
 -4.9541010e-001
 -4.8644201e-001
 -4.8738966e-001
 -4.9967881e-001
 -5.1308553e-001
 -5.1696195e-001
 -5.0332676e-001
 -4.9052041e-001
 -4.9217207e-001
 -4.7824346e-001
 -4.8073006e-001
 -4.9502320e-001
 -4.9404483e-001
 -4.7803424e-001
 -4.5864516e-001
 -4.5176852e-001
 -4.5044115e-001
 -4.7140794e-001
 -4.7229708e-001
 -4.6000735e-001
 -4.3889526e-001
 -4.1584786e-001
 -4.1926434e-001
 -4.2554901e-001
 -4.2712342e-001
 -4.2673729e-001
 -4.1384312e-001
 -4.0591596e-001
 -3.9387284e-001
 -3.9364086e-001
 -3.9943576e-001
 -4.0241325e-001
 -4.1058343e-001
 -3.9729640e-001
 -3.6774391e-001
 -3.7835853e-001
 -3.7755097e-001
 -3.7617573e-001
 -3.7579830e-001
 -3.8070446e-001
 -3.7212505e-001
 -3.6280770e-001
 -3.7279562e-001
 -4.0945877e-001
 -4.4739505e-001
 -4.7148340e-001
 -4.9174612e-001
 -5.0462539e-001
 -5.1441007e-001
 -5.3673489e-001
 -5.6563423e-001
 -5.8482244e-001
 -5.9787000e-001
 -6.0172033e-001
 -6.0502626e-001
 -5.9469094e-001
 -5.9913037e-001
 -6.1899419e-001
 -6.1752369e-001
 -6.0595754e-001
 -6.0245634e-001
 -5.9132704e-001
 -5.8501518e-001
 -5.8757657e-001
 -5.9781207e-001
 -6.0407493e-001
 -5.8815232e-001
 -5.7531408e-001
 -5.7258790e-001
 -5.7107493e-001
 -5.7679779e-001
 -5.7278624e-001
 -5.7599630e-001
 -5.6259252e-001
 -5.5241285e-001
 -5.5623678e-001
 -5.5458929e-001
 -5.6819972e-001
 -5.6420190e-001
 -5.6172762e-001
 -5.5903933e-001
 -5.5023686e-001
 -5.5173139e-001
 -5.6453265e-001
 -5.7898673e-001
 -5.8664705e-001
 -6.0190960e-001
 -5.8886273e-001
 -5.8638698e-001
 -5.8825331e-001
 -5.9374443e-001
 -6.1144655e-001
 -6.1135985e-001
 -6.0468518e-001
 -5.8958260e-001
 -5.9642566e-001
 -6.0084555e-001
 -6.2013952e-001
 -6.2194725e-001
 -6.1934033e-001
 -6.0772452e-001
 -6.0352587e-001
 -6.0678388e-001
 -6.1115868e-001
 -6.1738552e-001
 -6.3490632e-001
 -6.2652703e-001
 -6.0567766e-001
 -6.0339878e-001
 -6.0902948e-001
 -6.2360779e-001
 -6.2605396e-001
 -6.2887528e-001
 -6.1937507e-001
 -6.0398580e-001
 -6.0503987e-001
 -6.0827053e-001
 -6.1969072e-001
 -6.1796100e-001
 -6.1927285e-001
 -6.1187768e-001
 -6.0221116e-001
 -5.9979853e-001
 -6.0624391e-001
 -6.2097923e-001
 -6.2283063e-001
 -6.2511382e-001
 -6.1863195e-001
 -6.0279414e-001
 -5.9948489e-001
 -6.1668843e-001
 -6.1659460e-001
 -6.1909272e-001
 -6.1366446e-001
 -5.9668510e-001
 -6.0594246e-001
 -6.1289931e-001
 -6.2057538e-001
 -6.3089233e-001
 -6.0511615e-001
 -6.0407957e-001
 -6.0161558e-001
 -5.9933058e-001
 -6.1202864e-001
 -6.2632073e-001
 -6.1446305e-001
 -6.0418112e-001
 -5.9425558e-001
 -5.9027860e-001
 -5.9686338e-001
 -6.1219095e-001
 -6.2707369e-001
 -6.2778049e-001
 -6.1028367e-001
 -5.8909359e-001
 -5.7986399e-001
 -5.6958064e-001
 -5.7143313e-001
 -5.4958627e-001
 -5.2486954e-001
 -4.8881185e-001
 -4.6850607e-001
 -4.6057276e-001
 -4.6119861e-001
 -4.8869780e-001
 -4.9543703e-001
 -4.8884452e-001
 -4.7767940e-001
 -4.6146935e-001
 -4.7618442e-001
 -5.1286649e-001
 -5.5493758e-001
 -5.7612622e-001
 -5.8877264e-001
 -5.7417795e-001
 -5.7719862e-001
 -5.8839304e-001
 -5.9746332e-001
 -6.2577857e-001
 -6.1938671e-001
 -6.1901071e-001
 -6.0145023e-001
 -5.8648265e-001
 -6.0187767e-001
 -6.2164239e-001
 -6.2181938e-001
 -6.0229974e-001
 -5.9643355e-001
 -5.8581014e-001
 -5.8786582e-001
 -5.7680397e-001
 -5.7481946e-001
 -5.5195432e-001
 -5.3375362e-001
 -4.9985125e-001
 -4.2793380e-001
 -2.5559402e-001
  7.0874624e-002
  6.3624286e-001
  1.2959734e+000
  1.5959949e+000
  1.0253743e+000
 -1.2273117e-001
 -1.1765939e+000
 -1.3167933e+000
 -8.8500423e-001
 -4.9610709e-001
 -3.7295844e-001
 -4.3508153e-001
 -5.1538997e-001
 -5.4855106e-001
 -5.4110467e-001
 -5.2460637e-001
 -5.1558965e-001
 -5.1331444e-001
 -5.0501702e-001
 -5.1430616e-001
 -5.1373213e-001
 -5.2444286e-001
 -5.1371535e-001
 -5.0701355e-001
 -4.9099472e-001
 -4.8801002e-001
 -4.9237583e-001
 -5.0972634e-001
 -5.1156987e-001
 -5.0174403e-001
 -5.0217354e-001
 -4.9810431e-001
 -5.0287382e-001
 -5.1722557e-001
 -5.1151965e-001
 -4.9849128e-001
 -4.8804857e-001
 -4.8291535e-001
 -4.7433523e-001
 -4.8115670e-001
 -4.9636581e-001
 -5.0398030e-001
 -5.0152335e-001
 -4.9319135e-001
 -4.7239568e-001
 -4.6075897e-001
 -4.7253667e-001
 -4.7331509e-001
 -4.8030591e-001
 -4.6746383e-001
 -4.5271465e-001
 -4.4087731e-001
 -4.4959001e-001
 -4.5154753e-001
 -4.5470461e-001
 -4.4669809e-001
 -4.4231916e-001
 -4.3072927e-001
 -4.1486546e-001
 -4.3109790e-001
 -4.2407173e-001
 -4.2577674e-001
 -4.2586162e-001
 -4.2784378e-001
 -4.1136662e-001
 -4.1178443e-001
 -4.2386532e-001
 -4.3607264e-001
 -4.4519901e-001
 -4.4537369e-001
 -4.3861980e-001
 -4.2669112e-001
 -4.2387655e-001
 -4.2381247e-001
 -4.2560064e-001
 -4.3259928e-001
 -4.2926261e-001
 -4.2375041e-001
 -4.4349246e-001
 -4.6817940e-001
 -4.9433889e-001
 -5.2250803e-001
 -5.3908144e-001
 -5.6567315e-001
 -5.6170198e-001
 -5.6842899e-001
 -5.8442477e-001
 -6.0471614e-001
 -6.1027572e-001
 -6.2030843e-001
 -6.0592762e-001
 -5.9438295e-001
 -6.0070386e-001
 -6.1792726e-001
 -6.3137529e-001
 -6.1363233e-001
 -6.1522364e-001
 -5.9967173e-001
 -5.7831576e-001
 -5.9631631e-001
 -5.9806168e-001
 -5.9250244e-001
 -5.9493392e-001
 -5.8775283e-001
 -5.7261947e-001
 -5.7098237e-001
 -5.8183817e-001
 -5.9698070e-001
 -5.9534902e-001
 -5.8888029e-001
 -5.6697062e-001
 -5.6451941e-001
 -5.7004496e-001
 -5.6838572e-001
 -5.9191828e-001
 -6.0330606e-001
 -5.9175056e-001
 -5.8573102e-001
 -5.8738239e-001
 -5.9357592e-001
 -5.9781189e-001
 -6.1820254e-001
 -6.2571219e-001
 -6.2150751e-001
 -5.9759685e-001
 -6.0739200e-001
 -6.1984076e-001
 -6.3992037e-001
 -6.4488847e-001
 -6.3636573e-001
 -6.4620425e-001
 -6.3281540e-001
 -6.2640281e-001
 -6.3981240e-001
 -6.4538944e-001
 -6.5138718e-001
 -6.4715735e-001
 -6.4146724e-001
 -6.3083059e-001
 -6.3629150e-001
 -6.5139572e-001
 -6.5968178e-001
 -6.5261565e-001
 -6.4641161e-001
 -6.2967274e-001
 -6.3548384e-001
 -6.4241481e-001
 -6.6795050e-001
 -6.7225457e-001
 -6.6097911e-001
 -6.5121581e-001
 -6.3107536e-001
 -6.2110574e-001
 -6.2574588e-001
 -6.2031292e-001
 -6.0489298e-001
 -5.7788677e-001
 -5.5629253e-001
 -5.3715533e-001
 -5.1844351e-001
 -5.1964502e-001
 -5.3038370e-001
 -5.4720305e-001
 -5.4803647e-001
 -5.3879594e-001
 -5.3173277e-001
 -5.4091262e-001
 -5.7957978e-001
 -6.1920666e-001
 -6.3821949e-001
 -6.4169311e-001
 -6.3761851e-001
 -6.3121071e-001
 -6.4523487e-001
 -6.6660840e-001
 -6.6888507e-001
 -6.6900640e-001
 -6.6298741e-001
 -6.5063847e-001
 -6.5695247e-001
 -6.6893643e-001
 -6.7254578e-001
 -6.7898982e-001
 -6.6183476e-001
 -6.4357867e-001
 -6.2931664e-001
 -6.2883720e-001
 -6.2917051e-001
 -6.1616668e-001
 -6.0738238e-001
 -5.6487503e-001
 -4.5639078e-001
 -2.3993129e-001
  2.0860423e-001
  8.4561372e-001
  1.4472252e+000
  1.6703442e+000
  1.2039631e+000
  1.6258849e-001
 -9.7108732e-001
 -1.4199558e+000
 -1.1160563e+000
 -7.0128718e-001
 -4.6551127e-001
 -4.5786083e-001
 -5.3139182e-001
 -5.8894663e-001
 -5.9344167e-001
 -5.8766840e-001
 -5.6044106e-001
 -5.4501266e-001
 -5.4379222e-001
 -5.4943071e-001
 -5.5802599e-001
 -5.6796184e-001
 -5.7393925e-001
 -5.6270019e-001
 -5.4908271e-001
 -5.2900597e-001
 -5.4171225e-001
 -5.4162381e-001
 -5.4761318e-001
 -5.4693322e-001
 -5.4050998e-001
 -5.2321424e-001
 -5.2130847e-001
 -5.3740915e-001
 -5.4922669e-001
 -5.5643821e-001
 -5.5533090e-001
 -5.4558241e-001
 -5.2133827e-001
 -5.2798120e-001
 -5.3187332e-001
 -5.3664562e-001
 -5.3973938e-001
 -5.2729761e-001
 -5.1211234e-001
 -5.0487585e-001
 -5.0854443e-001
 -5.1808699e-001
 -5.2764858e-001
 -5.1819648e-001
 -5.0986980e-001
 -5.0554305e-001
 -4.9308575e-001
 -4.9858559e-001
 -4.9701074e-001
 -5.0196945e-001
 -4.9094988e-001
 -4.7519247e-001
 -4.5818807e-001
 -4.5915320e-001
 -4.6543060e-001
 -4.6798990e-001
 -4.6997881e-001
 -4.5591125e-001
 -4.3892682e-001
 -4.3771386e-001
 -4.3791397e-001
 -4.6096425e-001
 -4.5858152e-001
 -4.5814461e-001
 -4.5234301e-001
 -4.3842533e-001
 -4.4649226e-001
 -4.6613694e-001
 -4.6211997e-001
 -4.8403962e-001
 -4.9929147e-001
 -5.0298146e-001
 -5.0209729e-001
 -5.3062676e-001
 -5.5330236e-001
 -5.8705012e-001
 -6.0591305e-001
 -6.2678682e-001
 -6.2823021e-001
 -6.3246977e-001
 -6.4372720e-001
 -6.6043054e-001
 -6.8866846e-001
 -6.9747310e-001
 -6.8230310e-001
 -6.7166084e-001
 -6.8359189e-001
 -6.8687218e-001
 -7.0369923e-001
 -6.9340096e-001
 -6.8045081e-001
 -6.7433143e-001
 -6.5532327e-001
 -6.4820527e-001
 -6.5347010e-001
 -6.5787998e-001
 -6.6206144e-001
 -6.4557632e-001
 -6.2653120e-001
 -6.1288650e-001
 -6.1575243e-001
 -6.3009340e-001
 -6.4151753e-001
 -6.3810158e-001
 -6.3315403e-001
 -6.1530556e-001
 -6.1957889e-001
 -6.1699407e-001
 -6.3834068e-001
 -6.4356829e-001
 -6.4616591e-001
 -6.4032067e-001
 -6.3232650e-001
 -6.3822897e-001
 -6.5136303e-001
 -6.5636184e-001
 -6.6731945e-001
 -6.7538149e-001
 -6.6264568e-001
 -6.5563836e-001
 -6.6168487e-001
 -6.7196356e-001
 -6.8037142e-001
 -6.8597408e-001
 -6.7807625e-001
 -6.6900895e-001
 -6.6251963e-001
 -6.8161491e-001
 -6.8474224e-001
 -6.8824314e-001
 -6.8820162e-001
 -6.7312767e-001
 -6.6496267e-001
 -6.6875632e-001
 -6.8170585e-001
 -6.9389830e-001
 -6.9645370e-001
 -6.8813882e-001
 -6.7727001e-001
 -6.7014526e-001
 -6.6428386e-001
 -6.8412300e-001
 -6.9306325e-001
 -6.9169422e-001
 -6.7640081e-001
 -6.5421044e-001
 -6.4341858e-001
 -6.2097705e-001
 -6.1705724e-001
 -6.0745468e-001
 -5.8297247e-001
 -5.7062275e-001
 -5.5267090e-001
 -5.4006381e-001
 -5.3236490e-001
 -5.3774316e-001
 -5.6715789e-001
 -5.4986110e-001
 -5.5475075e-001
 -5.3237900e-001
 -5.3223892e-001
 -5.6477658e-001
 -5.9537144e-001
 -6.3744251e-001
 -6.5821183e-001
 -6.5592979e-001
 -6.4859493e-001
 -6.6774686e-001
 -6.7497458e-001
 -6.7785211e-001
 -6.7676089e-001
 -6.7983738e-001
 -6.6754509e-001
 -6.6291665e-001
 -6.7169788e-001
 -6.7541917e-001
 -6.7881242e-001
 -6.7114004e-001
 -6.5532232e-001
 -6.3979739e-001
 -6.4363911e-001
 -6.4358247e-001
 -6.3964363e-001
 -6.3025001e-001
 -6.1193440e-001
 -5.8845312e-001
 -5.4354851e-001
 -4.0691528e-001
 -1.1339900e-001
  4.0744442e-001
  1.1013048e+000
  1.6400075e+000
  1.5681302e+000
  7.2417478e-001
 -4.5291796e-001
 -1.3199408e+000
 -1.3731376e+000
 -9.8075667e-001
 -6.2376367e-001
 -4.8427067e-001
 -5.0483495e-001
 -5.5930643e-001
 -6.0265657e-001
 -6.0898154e-001
 -5.8127789e-001
 -5.7008371e-001
 -5.6008939e-001
 -5.6902266e-001
 -5.7136877e-001
 -5.8156072e-001
 -5.8102590e-001
 -5.6317586e-001
 -5.5423691e-001
 -5.5217499e-001
 -5.4711361e-001
 -5.6759632e-001
 -5.7592774e-001
 -5.6174366e-001
 -5.5613391e-001
 -5.4249782e-001
 -5.5280892e-001
 -5.6448520e-001
 -5.6877841e-001
 -5.7604796e-001
 -5.6117267e-001
 -5.5459200e-001
 -5.5160868e-001
 -5.4671493e-001
 -5.4291584e-001
 -5.6029034e-001
 -5.5095031e-001
 -5.3734874e-001
 -5.3515444e-001
 -5.2453456e-001
 -5.2970715e-001
 -5.3520534e-001
 -5.4230100e-001
 -5.2777431e-001
 -5.0684701e-001
 -5.0724460e-001
 -4.9288660e-001
 -5.0190388e-001
 -5.1339650e-001
 -5.1001865e-001
 -4.9294827e-001
 -4.7536328e-001
 -4.7172485e-001
 -4.6899790e-001
 -4.7413155e-001
 -4.7953225e-001
 -4.6251291e-001
 -4.5599593e-001
 -4.3891294e-001
 -4.2003586e-001
 -4.2907309e-001
 -4.4087719e-001
 -4.3739108e-001
 -4.1610557e-001
 -4.1245666e-001
 -3.9994723e-001
 -3.9537161e-001
 -4.1266518e-001
 -4.1393445e-001
 -4.1731060e-001
 -4.0479950e-001
 -3.8066620e-001
 -3.8252178e-001
 -4.0618032e-001
 -4.3260723e-001
 -4.5645145e-001
 -4.7873524e-001
 -4.9911384e-001
 -5.1497371e-001
 -5.3026792e-001
 -5.6836731e-001
 -5.9238159e-001
 -6.1808984e-001
 -6.1827183e-001
 -6.1744582e-001
 -6.1641728e-001
 -6.3578375e-001
 -6.5567487e-001
 -6.6354511e-001
 -6.6162638e-001
 -6.5204884e-001
 -6.4308827e-001
 -6.4019921e-001
 -6.4790966e-001
 -6.5287594e-001
 -6.5504612e-001
 -6.3659174e-001
 -6.2518739e-001
 -6.0630502e-001
 -5.9900021e-001
 -5.9848364e-001
 -6.1047820e-001
 -6.0255397e-001
 -5.9246036e-001
 -5.7521043e-001
 -5.6778214e-001
 -5.6002831e-001
 -5.6928659e-001
 -5.7595508e-001
 -5.6989596e-001
 -5.7056584e-001
 -5.5379398e-001
 -5.4185027e-001
 -5.6142143e-001
 -5.7200259e-001
 -5.7770319e-001
 -5.7228812e-001
 -5.7505379e-001
 -5.6591180e-001
 -5.6722487e-001
 -5.7742558e-001
 -5.8728039e-001
 -6.0398869e-001
 -5.9752587e-001
 -5.8719132e-001
 -5.7506087e-001
 -5.8204766e-001
 -5.9956448e-001
 -5.9645335e-001
 -6.0320648e-001
 -5.9611773e-001
 -5.8738362e-001
 -5.8650824e-001
 -5.9399782e-001
 -6.0796752e-001
 -6.0514738e-001
 -6.0592674e-001
 -5.9091831e-001
 -5.7209689e-001
 -5.9051177e-001
 -5.9503276e-001
 -6.0099560e-001
 -6.0976385e-001
 -5.9823052e-001
 -5.9743558e-001
 -5.7945082e-001
 -5.8110509e-001
 -5.8201481e-001
 -5.8294320e-001
 -5.8760998e-001
 -5.7503641e-001
 -5.6254639e-001
 -5.6023753e-001
 -5.5654814e-001
 -5.6519403e-001
 -5.6899109e-001
 -5.6881854e-001
 -5.6311961e-001
 -5.5481839e-001
 -5.4712866e-001
 -5.3394616e-001
 -5.3246539e-001
 -5.2345674e-001
 -5.0862708e-001
 -4.7701643e-001
 -4.4015048e-001
 -4.2425776e-001
 -4.1440846e-001
 -4.1343951e-001
 -4.1495229e-001
 -4.2121556e-001
 -4.1530923e-001
 -4.1400412e-001
 -4.1526346e-001
 -4.1270429e-001
 -4.3937135e-001
 -4.5073087e-001
 -4.5602683e-001
 -4.7243525e-001
 -4.9205124e-001
 -5.0611135e-001
 -5.2721282e-001
 -5.3125622e-001
 -5.1614678e-001
 -5.1468882e-001
 -5.0274091e-001
 -5.1440119e-001
 -5.2864119e-001
 -5.3434199e-001
 -5.3503419e-001
 -5.3351078e-001
 -5.1487971e-001
 -5.1156072e-001
 -4.9903033e-001
 -5.0766754e-001
 -4.9394836e-001
 -4.7402766e-001
 -4.4546495e-001
 -4.2301610e-001
 -3.7199639e-001
 -2.3192257e-001
  7.0522624e-002
  6.2015331e-001
  1.3121734e+000
  1.7753728e+000
  1.4912029e+000
  4.9248903e-001
 -6.9076491e-001
 -1.2919837e+000
 -1.0345600e+000
 -6.0502129e-001
 -3.4866705e-001
 -3.0140289e-001
 -3.3666979e-001
 -4.0037761e-001
 -4.1785637e-001
 -4.0452868e-001
 -3.8084550e-001
 -3.6472191e-001
 -3.7505463e-001
 -3.7930554e-001
 -3.8209200e-001
 -3.9718567e-001
 -3.9006586e-001
 -3.7179015e-001
 -3.5935795e-001
 -3.6530453e-001
 -3.6446053e-001
 -3.6801871e-001
 -3.7522959e-001
 -3.5894385e-001
 -3.5337234e-001
 -3.3525378e-001
 -3.3744618e-001
 -3.4138883e-001
 -3.4741774e-001
 -3.6142381e-001
 -3.5084555e-001
 -3.3615061e-001
 -3.2898865e-001
 -3.3154866e-001
 -3.4397199e-001
 -3.5701825e-001
 -3.3376170e-001
 -3.2529300e-001
 -3.0672127e-001
 -2.9454157e-001
 -3.0104833e-001
 -3.2143797e-001
 -3.2977779e-001
 -3.0575938e-001
 -2.8490429e-001
 -2.7389271e-001
 -2.7247256e-001
 -2.8080103e-001
 -2.8417057e-001
 -2.8365781e-001
 -2.7566025e-001
 -2.4628898e-001
 -2.2817775e-001
 -2.3066403e-001
 -2.3599712e-001
 -2.3879754e-001
 -2.2738034e-001
 -2.0795555e-001
 -2.0504958e-001
 -2.0550918e-001
 -2.0253704e-001
 -2.1708420e-001
 -2.2662267e-001
 -2.2411934e-001
 -2.1409065e-001
 -1.9700026e-001
 -1.8924964e-001
 -2.1371065e-001
 -2.1027891e-001
 -2.0796430e-001
 -2.1890504e-001
 -2.1158953e-001
 -2.2719544e-001
 -2.5360754e-001
 -2.9064597e-001
 -3.0776665e-001
 -3.3236648e-001
 -3.4255686e-001
 -3.4370705e-001
 -3.7374226e-001
 -4.0029640e-001
 -4.1527996e-001
 -4.2731752e-001
 -4.2840195e-001
 -4.2683019e-001
 -4.2163730e-001
 -4.2897475e-001
 -4.3713285e-001
 -4.5766222e-001
 -4.4974937e-001
 -4.4029242e-001
 -4.2218478e-001
 -4.1632238e-001
 -4.2517753e-001
 -4.3416859e-001
 -4.4176824e-001
 -4.2763677e-001
 -4.1958293e-001
 -4.0243879e-001
 -3.9674645e-001
 -4.0473425e-001
 -4.0477787e-001
 -3.9573154e-001
 -3.9869833e-001
 -3.9115799e-001
 -3.7620791e-001
 -3.8380308e-001
 -3.9255616e-001
 -3.9734092e-001
 -3.9157546e-001
 -3.9160501e-001
 -3.9069469e-001
 -3.8844155e-001
 -3.9889211e-001
 -4.0707788e-001
 -4.2562936e-001
 -4.1698191e-001
 -4.1029599e-001
 -3.9758477e-001
 -4.0232952e-001
 -4.1116609e-001
 -4.2739685e-001
 -4.3414890e-001
 -4.1778115e-001
 -4.1076388e-001
 -4.1344402e-001
 -4.1025325e-001
 -4.2383971e-001
 -4.4224620e-001
 -4.3783177e-001
 -4.3029447e-001
 -4.4065884e-001
 -4.1648083e-001
 -4.1941724e-001
 -4.3754030e-001
 -4.5420865e-001
 -4.4622203e-001
 -4.3158804e-001
 -4.2087124e-001
 -4.2238645e-001
 -4.3091577e-001
 -4.4882124e-001
 -4.5153405e-001
 -4.3998973e-001
 -4.3167627e-001
 -4.2612814e-001
 -4.3852218e-001
 -4.3797728e-001
 -4.5038330e-001
 -4.5377641e-001
 -4.5362521e-001
 -4.3325452e-001
 -4.3884020e-001
 -4.4148563e-001
 -4.4650001e-001
 -4.5900332e-001
 -4.4481805e-001
 -4.2192577e-001
 -4.0733591e-001
 -3.8746735e-001
 -3.7978175e-001
 -3.7368750e-001
 -3.4851263e-001
 -3.2872417e-001
 -3.0299764e-001
 -2.9039276e-001
 -2.7698397e-001
 -2.9668985e-001
 -3.2223462e-001
 -3.2900561e-001
 -3.1858931e-001
 -3.0123196e-001
 -3.1896549e-001
 -3.4479257e-001
 -3.8070018e-001
 -4.1867909e-001
 -4.4076725e-001
 -4.3635754e-001
 -4.2153465e-001
 -4.2410263e-001
 -4.2845462e-001
 -4.4708940e-001
 -4.6368067e-001
 -4.5952498e-001
 -4.4585424e-001
 -4.3127510e-001
 -4.3226577e-001
 -4.4373946e-001
 -4.5456571e-001
 -4.5212644e-001
 -4.2870817e-001
 -4.0485900e-001
 -3.9812502e-001
 -3.8500578e-001
 -3.7978601e-001
 -3.6043850e-001
 -2.7091882e-001
 -2.8338629e-002
  4.3969688e-001
  1.1156267e+000
  1.6956627e+000
  1.7762377e+000
  1.1489060e+000
  2.1849092e-002
 -9.6677900e-001
 -1.1995453e+000
 -8.7267349e-001
 -4.7369515e-001
 -2.8889948e-001
 -2.8637931e-001
 -3.4092865e-001
 -3.7628602e-001
 -3.8089928e-001
 -3.7262653e-001
 -3.6652759e-001
 -3.7245865e-001
 -3.5658999e-001
 -3.4831704e-001
 -3.4436020e-001
 -3.4382273e-001
 -3.5154666e-001
 -3.6572625e-001
 -3.6337539e-001
 -3.5195872e-001
 -3.3669831e-001
 -3.3182967e-001
 -3.4219407e-001
 -3.4421732e-001
 -3.5071405e-001
 -3.4938898e-001
 -3.4833809e-001
 -3.3814984e-001
 -3.4252789e-001
 -3.4443210e-001
 -3.5585182e-001
 -3.6514586e-001
 -3.4277199e-001
 -3.4500456e-001
 -3.3876289e-001
 -3.2633254e-001
 -3.3499871e-001
 -3.4203399e-001
 -3.4665670e-001
 -3.3789368e-001
 -3.3246829e-001
 -3.0884490e-001
 -3.3278294e-001
 -3.3001437e-001
 -3.2985718e-001
 -3.3910126e-001
 -3.2633312e-001
 -3.0961744e-001
 -2.8648075e-001
 -2.9326098e-001
 -2.8905129e-001
 -2.9815852e-001
 -2.9416148e-001
 -2.7109353e-001
 -2.7560237e-001
 -2.7401123e-001
 -2.6387548e-001
 -2.7508517e-001
 -2.7806802e-001
 -2.6372778e-001
 -2.4976726e-001
 -2.3767112e-001
 -2.4443050e-001
 -2.5480557e-001
 -2.6763527e-001
 -2.6986772e-001
 -2.6230357e-001
 -2.4752733e-001
 -2.5269288e-001
 -2.6428033e-001
 -2.5647559e-001
 -2.6800650e-001
 -2.8069557e-001
 -2.8587640e-001
 -3.0898620e-001
 -3.3212400e-001
 -3.7099201e-001
 -4.0881768e-001
 -4.2606296e-001
 -4.4697204e-001
 -4.6144286e-001
 -4.6235667e-001
 -4.7266111e-001
 -5.0264795e-001
 -5.1367915e-001
 -5.1679345e-001
 -5.0988955e-001
 -4.9831404e-001
 -5.0064916e-001
 -5.1168832e-001
 -5.2143564e-001
 -5.2675200e-001
 -5.2746138e-001
 -5.1433286e-001
 -5.0263370e-001
 -4.9331369e-001
 -5.0229462e-001
 -5.1222126e-001
 -5.0594246e-001
 -4.9754067e-001
 -4.9687307e-001
 -4.7152868e-001
 -4.7525019e-001
 -4.8971126e-001
 -4.9147051e-001
 -4.9339108e-001
 -4.8589380e-001
 -4.6985534e-001
 -4.7126585e-001
 -4.6017084e-001
 -4.8504505e-001
 -4.9933811e-001
 -4.9709774e-001
 -4.9918385e-001
 -4.8704510e-001
 -4.9058267e-001
 -5.2166233e-001
 -5.3774122e-001
 -5.3392058e-001
 -5.2757346e-001
 -5.2211855e-001
 -5.0474178e-001
 -5.2107686e-001
 -5.3030620e-001
 -5.3626190e-001
 -5.4572773e-001
 -5.3788803e-001
 -5.3499615e-001
 -5.3406791e-001
 -5.4036795e-001
 -5.4177980e-001
 -5.5590632e-001
 -5.5175837e-001
 -5.4618387e-001
 -5.4868789e-001
 -5.5552060e-001
 -5.6218350e-001
 -5.7673189e-001
 -5.7586051e-001
 -5.5504352e-001
 -5.3094968e-001
 -5.0194562e-001
 -4.9081516e-001
 -4.9038030e-001
 -4.9506229e-001
 -4.8427564e-001
 -4.5294024e-001
 -4.2167521e-001
 -4.0106919e-001
 -4.1732354e-001
 -4.4383973e-001
 -4.4468626e-001
 -4.3369640e-001
 -4.2034743e-001
 -4.1256732e-001
 -4.1642697e-001
 -4.6391570e-001
 -5.2015386e-001
 -5.5107090e-001
 -5.6923582e-001
 -5.6521403e-001
 -5.4322412e-001
 -5.4524375e-001
 -5.6674847e-001
 -5.8025683e-001
 -5.9275321e-001
 -5.8833813e-001
 -5.7889678e-001
 -5.7675000e-001
 -5.9217798e-001
 -6.0243244e-001
 -5.9666700e-001
 -5.8992016e-001
 -5.7981931e-001
 -5.6157815e-001
 -5.5070658e-001
 -5.4558688e-001
 -5.4909864e-001
 -5.4429193e-001
 -5.2638455e-001
 -4.9166034e-001
 -4.1584697e-001
 -2.2491092e-001
  1.6441381e-001
  7.9768679e-001
  1.4328805e+000
  1.7179736e+000
  1.2741454e+000
  2.2363048e-001
 -9.0511021e-001
 -1.3850940e+000
 -1.1176028e+000
 -7.0635307e-001
 -4.6238932e-001
 -4.1307565e-001
 -4.6422655e-001
 -4.9811032e-001
 -5.1171196e-001
 -5.2247714e-001
 -5.1338991e-001
 -4.9122937e-001
 -4.7718821e-001
 -4.7932528e-001
 -4.9155385e-001
 -4.9826885e-001
 -4.9579513e-001
 -4.8875433e-001
 -4.6731970e-001
 -4.6612711e-001
 -4.7147958e-001
 -4.7460434e-001
 -4.8830983e-001
 -4.8353094e-001
 -4.7290577e-001
 -4.5739311e-001
 -4.6447853e-001
 -4.7877760e-001
 -4.8594849e-001
 -5.0024714e-001
 -4.9056190e-001
 -4.7840076e-001
 -4.7965877e-001
 -4.5691053e-001
 -4.7013659e-001
 -4.8008587e-001
 -4.8402779e-001
 -4.7515246e-001
 -4.5687335e-001
 -4.5095523e-001
 -4.5689476e-001
 -4.6017411e-001
 -4.7019616e-001
 -4.6922612e-001
 -4.5506297e-001
 -4.4302886e-001
 -4.2755869e-001
 -4.3804786e-001
 -4.3365801e-001
 -4.4128063e-001
 -4.2632273e-001
 -4.0717981e-001
 -3.8832252e-001
 -3.9276903e-001
 -4.0568345e-001
 -4.0925897e-001
 -4.0475398e-001
 -3.9000852e-001
 -3.7300721e-001
 -3.5887565e-001
 -3.6685429e-001
 -3.6988308e-001
 -3.7295194e-001
 -3.6564313e-001
 -3.4617204e-001
 -3.4117778e-001
 -3.4301358e-001
 -3.5290529e-001
 -3.6440496e-001
 -3.7728732e-001
 -3.6595615e-001
 -3.5469670e-001
 -3.6153489e-001
 -3.7503892e-001
 -4.0961187e-001
 -4.5947473e-001
 -4.7511004e-001
 -4.9096211e-001
 -5.1644674e-001
 -5.4475835e-001
 -5.7436101e-001
 -5.9062975e-001
 -6.1480224e-001
 -6.2194633e-001
 -6.2059072e-001
 -6.3309905e-001
 -6.2269782e-001
 -6.3776091e-001
 -6.5405209e-001
 -6.5086578e-001
 -6.3287604e-001
 -6.2569249e-001
 -6.1607292e-001
 -6.1594091e-001
 -6.2660202e-001
 -6.2952470e-001
 -6.2941820e-001
 -6.1826278e-001
 -6.1043763e-001
 -5.8618585e-001
 -5.8461750e-001
 -6.0182619e-001
 -6.0435138e-001
 -6.0539624e-001
 -5.8051952e-001
 -5.6406842e-001
 -5.7225164e-001
 -5.7951922e-001
 -5.9279469e-001
 -6.0013836e-001
 -6.0248129e-001
 -5.9668155e-001
 -5.8600921e-001
 -5.9090490e-001
 -5.9814018e-001
 -6.2426394e-001
 -6.3810956e-001
 -6.1794140e-001
 -6.1114860e-001
 -6.0984657e-001
 -6.1213256e-001
 -6.3040643e-001
 -6.4652164e-001
 -6.4339201e-001
 -6.4221883e-001
 -6.3580624e-001
 -6.1986211e-001
 -6.3133060e-001
 -6.4291117e-001
 -6.6456202e-001
 -6.4590803e-001
 -6.2635339e-001
 -6.2357013e-001
 -6.0786897e-001
 -6.1766332e-001
 -6.1299698e-001
 -6.0454653e-001
 -5.7854478e-001
 -5.3445960e-001
 -5.1004900e-001
 -5.0419364e-001
 -4.9343840e-001
 -5.0529733e-001
 -5.2953722e-001
 -5.1705482e-001
 -4.9085458e-001
 -4.8131817e-001
 -4.9850696e-001
 -5.1676188e-001
 -5.4488450e-001
 -5.7029336e-001
 -5.9201430e-001
 -6.1857158e-001
 -6.3929171e-001
 -6.4957362e-001
 -6.5482677e-001
 -6.4663572e-001
 -6.5442444e-001
 -6.5505366e-001
 -6.4332596e-001
 -6.5330258e-001
 -6.7380971e-001
 -6.8292463e-001
 -6.6897822e-001
 -6.7553239e-001
 -6.4700686e-001
 -6.4404600e-001
 -6.4765608e-001
 -6.4869564e-001
 -6.4975446e-001
 -6.4327120e-001
 -6.2082632e-001
 -5.9059142e-001
 -5.7521794e-001
 -5.7644786e-001
 -5.4080186e-001
 -4.5322433e-001
 -2.4154442e-001
  1.6201454e-001
  7.6392556e-001
  1.4097162e+000
  1.7317088e+000
  1.3504888e+000
  3.4336762e-001
 -8.3520447e-001
 -1.4570653e+000
 -1.2166610e+000
 -7.9409340e-001
 -5.3454717e-001
 -4.7900091e-001
 -5.1542352e-001
 -5.8115768e-001
 -5.7662631e-001
 -5.5632770e-001
 -5.6202012e-001
 -5.6181619e-001
 -5.6954995e-001
 -5.5990089e-001
 -5.4863192e-001
 -5.3931323e-001
 -5.3244181e-001
 -5.3764235e-001
 -5.5323045e-001
 -5.4562160e-001
 -5.3270241e-001
 -5.2390576e-001
 -5.2873977e-001
 -5.3183779e-001
 -5.4379960e-001
 -5.4984673e-001
 -5.4007667e-001
 -5.3225105e-001
 -5.0992789e-001
 -5.1730250e-001
 -5.1710703e-001
 -5.1902346e-001
 -5.2529730e-001
 -5.1674223e-001
 -5.0190212e-001
 -4.9019220e-001
 -5.0446697e-001
 -5.0875597e-001
 -5.0804172e-001
 -5.0414340e-001
 -4.9182816e-001
 -4.8117189e-001
 -4.7609258e-001
 -4.7676830e-001
 -4.7711807e-001
 -4.9737633e-001
 -4.8612280e-001
 -4.6076966e-001
 -4.5421324e-001
 -4.4948468e-001
 -4.4618950e-001
 -4.5906192e-001
 -4.4736919e-001
 -4.3247837e-001
 -4.0704216e-001
 -3.9013694e-001
 -3.8669463e-001
 -3.8725935e-001
 -3.9286589e-001
 -3.9223769e-001
 -3.6852146e-001
 -3.4738910e-001
 -3.5083008e-001
 -3.5456596e-001
 -3.6241614e-001
 -3.6856738e-001
 -3.4683392e-001
 -3.4133375e-001
 -3.2721091e-001
 -3.2924632e-001
 -3.3746941e-001
 -3.5384869e-001
 -3.7440310e-001
 -3.7930823e-001
 -3.9501205e-001
 -4.0545481e-001
 -4.5295091e-001
 -4.9039579e-001
 -5.2255020e-001
 -5.5615297e-001
 -5.8095512e-001
 -5.8609148e-001
 -6.0124332e-001
 -6.1889160e-001
 -6.3644380e-001
 -6.6304195e-001
 -6.5471807e-001
 -6.4706908e-001
 -6.4520016e-001
 -6.4951471e-001
 -6.5809741e-001
 -6.6396652e-001
 -6.5659406e-001
 -6.5390738e-001
 -6.4368112e-001
 -6.3159153e-001
 -6.2700820e-001
 -6.3502019e-001
 -6.4234988e-001
 -6.2153783e-001
 -6.1309738e-001
 -5.9743516e-001
 -5.7953120e-001
 -5.8564447e-001
 -5.9541539e-001
 -6.1413555e-001
 -6.0287916e-001
 -5.8451109e-001
 -5.7327001e-001
 -5.7051755e-001
 -5.9224013e-001
 -6.1851730e-001
 -6.3028341e-001
 -6.2762553e-001
 -6.1721944e-001
 -6.0100334e-001
 -5.9953705e-001
 -6.0954702e-001
 -6.2981177e-001
 -6.2856486e-001
 -6.1487035e-001
 -6.0745242e-001
 -6.1879232e-001
 -6.2838978e-001
 -6.4139486e-001
 -6.5137038e-001
 -6.4609117e-001
 -6.4774017e-001
 -6.2145511e-001
 -6.2232225e-001
 -6.4260668e-001
 -6.5966423e-001
 -6.4031896e-001
 -6.3555767e-001
 -6.2786061e-001
 -6.2034799e-001
 -6.2223185e-001
 -6.2659628e-001
 -6.4061709e-001
 -6.2967919e-001
 -6.1386444e-001
 -6.1297986e-001
 -6.1266863e-001
 -6.1570791e-001
 -6.3299663e-001
 -6.2247966e-001
 -6.2252854e-001
 -6.2214087e-001
 -6.0391309e-001
 -6.0549387e-001
 -6.0679487e-001
 -6.1688015e-001
 -6.2798256e-001
 -6.1157594e-001
 -6.0149271e-001
 -5.9005107e-001
 -5.9769732e-001
 -6.0033852e-001
 -6.0830262e-001
 -5.9296994e-001
 -5.4624007e-001
 -5.1035726e-001
 -4.8708185e-001
 -4.7985449e-001
 -4.6925043e-001
 -4.6106279e-001
 -4.3017319e-001
 -4.3152045e-001
 -4.2745654e-001
 -4.2672944e-001
 -4.3783944e-001
 -4.4589843e-001
 -4.5488504e-001
 -4.5303786e-001
 -4.5612521e-001
 -4.7780855e-001
 -5.0372421e-001
 -5.3228319e-001
 -5.5192198e-001
 -5.5286390e-001
 -5.6068770e-001
 -5.4462195e-001
 -5.3363356e-001
 -5.3896805e-001
 -5.5094606e-001
 -5.6008795e-001
 -5.6502791e-001
 -5.6433255e-001
 -5.4021426e-001
 -5.3578973e-001
 -5.3073099e-001
 -5.3819581e-001
 -5.4790272e-001
 -5.2541260e-001
 -4.9710611e-001
 -4.8004077e-001
 -4.7262805e-001
 -4.5871778e-001
 -4.6841911e-001
 -4.5700534e-001
 -4.2516496e-001
 -3.5454535e-001
 -1.9325678e-001
  1.0976953e-001
  6.2405567e-001
  1.2728194e+000
  1.7626596e+000
  1.5838797e+000
  6.6778548e-001
 -5.4284004e-001
 -1.2679321e+000
 -1.0906006e+000
 -6.5619958e-001
 -3.4004845e-001
 -2.6846679e-001
 -3.0905894e-001
 -3.7325856e-001
 -4.0116754e-001
 -3.9335111e-001
 -3.7447231e-001
 -3.5922295e-001
 -3.4855927e-001
 -3.3668989e-001
 -3.4077536e-001
 -3.4407500e-001
 -3.5437707e-001
 -3.4942174e-001
 -3.3785508e-001
 -3.2074250e-001
 -3.1165973e-001
 -3.2088086e-001
 -3.3638168e-001
 -3.3836152e-001
 -3.2041074e-001
 -3.0386035e-001
 -2.9436817e-001
 -3.0362389e-001
 -3.1754342e-001
 -3.0605149e-001
 -3.1880295e-001
 -3.0783140e-001
 -2.8714407e-001
 -2.8624707e-001
 -2.8165870e-001
 -2.8551264e-001
 -2.9415406e-001
 -2.9295041e-001
 -2.8088599e-001
 -2.6097078e-001
 -2.6606273e-001
 -2.6413326e-001
 -2.6406845e-001
 -2.6563200e-001
 -2.6787185e-001
 -2.4655334e-001
 -2.2855163e-001
 -2.1398283e-001
 -2.2343958e-001
 -2.1346265e-001
 -2.0334951e-001
 -1.8774114e-001
 -1.7576839e-001
 -1.6480502e-001
 -1.7211493e-001
 -1.7134133e-001
 -1.7223521e-001
 -1.5456846e-001
 -1.3744305e-001
 -1.2196520e-001
 -1.1177282e-001
 -1.2533151e-001
 -1.3989131e-001
 -1.4389930e-001
 -1.3697771e-001
 -1.2706592e-001
 -1.0371919e-001
 -1.0338110e-001
 -1.0493848e-001
 -1.1161940e-001
 -1.1649240e-001
 -1.2173823e-001
 -1.2208388e-001
 -1.3325684e-001
 -1.5174829e-001
 -1.8715948e-001
 -2.2249035e-001
 -2.4821199e-001
 -2.6509491e-001
 -2.7478590e-001
 -2.8575800e-001
 -2.9330672e-001
 -3.0674370e-001
 -3.2554118e-001
 -3.4453322e-001
 -3.2499275e-001
 -3.1491518e-001
 -3.1803221e-001
 -3.3418499e-001
 -3.4794843e-001
 -3.3989555e-001
 -3.2944925e-001
 -3.0814848e-001
 -2.9155572e-001
 -2.8687193e-001
 -2.8079034e-001
 -3.0633287e-001
 -2.9798065e-001
 -2.7296054e-001
 -2.5933844e-001
 -2.5397606e-001
 -2.5596940e-001
 -2.7342047e-001
 -2.6659868e-001
 -2.6993064e-001
 -2.5021314e-001
 -2.3579936e-001
 -2.3673083e-001
 -2.4795929e-001
 -2.5982299e-001
 -2.6494247e-001
 -2.5418248e-001
 -2.5044363e-001
 -2.4648164e-001
 -2.4887220e-001
 -2.5711453e-001
 -2.7874362e-001
 -2.8008495e-001
 -2.7069349e-001
 -2.5751227e-001
 -2.5465092e-001
 -2.6050634e-001
 -2.7089443e-001
 -2.9198909e-001
 -2.9250833e-001
 -2.7844907e-001
 -2.6700684e-001
 -2.7691287e-001
 -2.8761378e-001
 -2.9276935e-001
 -2.8115906e-001
 -2.8844318e-001
 -2.9404207e-001
 -2.7108587e-001
 -2.6967778e-001
 -2.7966690e-001
 -2.8007115e-001
 -2.8146787e-001
 -2.8586937e-001
 -2.8353686e-001
 -2.6284192e-001
 -2.7660403e-001
 -2.9902824e-001
 -2.9938195e-001
 -2.9310966e-001
 -2.7552526e-001
 -2.6503452e-001
 -2.6916184e-001
 -2.7992045e-001
 -2.8767165e-001
 -2.8546556e-001
 -2.7783611e-001
 -2.7881480e-001
 -2.7626118e-001
 -2.6891161e-001
 -2.8879067e-001
 -2.9392643e-001
 -2.9464016e-001
 -2.8617255e-001
 -2.6696319e-001
 -2.3498892e-001
 -2.3538113e-001
 -2.1729659e-001
 -2.0662349e-001
 -1.8484235e-001
 -1.6361628e-001
 -1.3799653e-001
 -1.2101297e-001
 -1.3394675e-001
 -1.5795164e-001
 -1.6549574e-001
 -1.5885178e-001
 -1.4663485e-001
 -1.4419354e-001
 -1.5309639e-001
 -1.7889503e-001
 -2.1158442e-001
 -2.4138372e-001
 -2.5358389e-001
 -2.6483527e-001
 -2.6511551e-001
 -2.6955062e-001
 -2.8837394e-001
 -2.9492395e-001
 -2.9098831e-001
 -2.7914505e-001
 -2.7431580e-001
 -2.7362347e-001
 -2.9430228e-001
 -2.9995324e-001
 -3.0116060e-001
 -2.8587040e-001
 -2.7790659e-001
 -2.6737594e-001
 -2.6776505e-001
 -2.8401381e-001
 -2.7894618e-001
 -2.5338335e-001
 -2.2520581e-001
 -2.0153545e-001
 -1.6764041e-001
 -5.2122698e-002
  2.4351349e-001
  7.9548995e-001
  1.4562679e+000
  1.8766162e+000
  1.6331396e+000
  6.6777700e-001
 -5.1608317e-001
 -1.0871035e+000
 -8.4232911e-001
 -4.0073051e-001
 -1.2610300e-001
 -7.2844240e-002
 -1.4242880e-001
 -2.1547226e-001
 -2.3732082e-001
 -2.1627515e-001
 -1.8502824e-001
 -1.7027928e-001
 -1.6386964e-001
 -1.7750059e-001
 -1.8902345e-001
 -1.9849443e-001
 -1.8569969e-001
 -1.7666414e-001
 -1.7820955e-001
 -1.6716046e-001
 -1.6906999e-001
 -1.6938391e-001
 -1.8322970e-001
 -1.8368939e-001
 -1.6214568e-001
 -1.5441465e-001
 -1.6083326e-001
 -1.6802277e-001
 -1.9262133e-001
 -1.8816450e-001
 -1.8034200e-001
 -1.7006926e-001
 -1.6950486e-001
 -1.7583527e-001
 -1.9230716e-001
 -1.9130384e-001
 -1.7987098e-001
 -1.8378269e-001
 -1.7292018e-001
 -1.7030719e-001
 -1.7888732e-001
 -1.7971790e-001
 -1.7582171e-001
 -1.7126597e-001
 -1.6344266e-001
 -1.4973615e-001
 -1.3961636e-001
 -1.4298210e-001
 -1.5101131e-001
 -1.5101041e-001
 -1.3638124e-001
 -1.2301976e-001
 -1.2030034e-001
 -1.2738594e-001
 -1.2799550e-001
 -1.2427815e-001
 -1.1632179e-001
 -1.0925029e-001
 -9.1475963e-002
 -1.0417784e-001
 -1.0679707e-001
 -1.1857746e-001
 -1.2906843e-001
 -1.1796946e-001
 -1.1305454e-001
 -9.5699593e-002
 -1.1089369e-001
 -1.0519813e-001
 -1.1764518e-001
 -1.2071078e-001
 -1.1567141e-001
 -1.2154451e-001
 -1.4790432e-001
 -1.7801777e-001
 -2.2631657e-001
 -2.5757273e-001
 -2.8340709e-001
 -2.9385733e-001
 -2.9344339e-001
 -3.1687051e-001
 -3.2960510e-001
 -3.5892373e-001
 -3.7462323e-001
 -3.6724874e-001
 -3.5352793e-001
 -3.4599630e-001
 -3.5540471e-001
 -3.8145684e-001
 -3.9575513e-001
 -3.9551638e-001
 -3.7656659e-001
 -3.5488466e-001
 -3.5675269e-001
 -3.5614091e-001
 -3.7112445e-001
 -3.6419449e-001
 -3.4643223e-001
 -3.5213091e-001
 -3.4603979e-001
 -3.4150248e-001
 -3.5018552e-001
 -3.5561601e-001
 -3.5017678e-001
 -3.4068081e-001
 -3.4138170e-001
 -3.3868437e-001
 -3.3729117e-001
 -3.5022124e-001
 -3.7286302e-001
 -3.7682350e-001
 -3.7190079e-001
 -3.6858472e-001
 -3.7752893e-001
 -3.7931533e-001
 -3.8811850e-001
 -4.0490248e-001
 -4.0684717e-001
 -4.0805752e-001
 -3.9375479e-001
 -3.9301605e-001
 -4.0480988e-001
 -4.2791590e-001
 -4.3621457e-001
 -4.3399967e-001
 -4.3242272e-001
 -4.2110675e-001
 -4.2638401e-001
 -4.3463064e-001
 -4.4634770e-001
 -4.4975024e-001
 -4.3877908e-001
 -4.3918580e-001
 -4.3413949e-001
 -4.3554128e-001
 -4.4610450e-001
 -4.5377800e-001
 -4.6937410e-001
 -4.4768174e-001
 -4.1563373e-001
 -3.9622158e-001
 -3.7575473e-001
 -3.7519974e-001
 -3.5528575e-001
 -3.4377261e-001
 -3.1023604e-001
 -2.8767732e-001
 -2.9744432e-001
 -3.1762974e-001
 -3.3250535e-001
 -3.4092436e-001
 -3.3263923e-001
 -3.3368242e-001
 -3.4521734e-001
 -3.7230043e-001
 -4.1680492e-001
 -4.5716513e-001
 -4.8494793e-001
 -4.6742925e-001
 -4.5457344e-001
 -4.6298210e-001
 -4.7036492e-001
 -4.9500589e-001
 -5.1067599e-001
 -5.1016607e-001
 -4.9669795e-001
 -4.9246210e-001
 -4.9204525e-001
 -5.0470260e-001
 -5.1025063e-001
 -5.1847882e-001
 -5.0382493e-001
 -4.8989101e-001
 -4.8099337e-001
 -4.7029610e-001
 -4.8056230e-001
 -4.7524605e-001
 -4.5669403e-001
 -4.2555988e-001
 -3.4534022e-001
 -1.6033049e-001
  2.1006165e-001
  7.7598526e-001
  1.3927823e+000
  1.7119033e+000
  1.4424251e+000
  5.5509754e-001
 -5.8927238e-001
 -1.2426406e+000
 -1.1409716e+000
 -7.2095138e-001
 -4.1231935e-001
 -3.2320566e-001
 -3.6140859e-001
 -4.2641094e-001
 -4.5852912e-001
 -4.5382398e-001
 -4.3648030e-001
 -4.2007457e-001
 -4.1663812e-001
 -4.2599007e-001
 -4.2019248e-001
 -4.3581709e-001
 -4.3802694e-001
 -4.2910268e-001
 -4.1882415e-001
 -4.1196369e-001
 -4.1058677e-001
 -4.1002399e-001
 -4.2723204e-001
 -4.2988638e-001
 -4.2193954e-001
 -4.1203669e-001
 -4.0752426e-001
 -4.1796226e-001
 -4.2517368e-001
 -4.3043615e-001
 -4.2573188e-001
 -4.1701874e-001
 -4.0884181e-001
 -4.0805879e-001
 -4.1609038e-001
 -4.2461641e-001
 -4.3088702e-001
 -4.2708290e-001
 -4.0654253e-001
 -3.9456994e-001
 -3.9816941e-001
 -3.9607058e-001
 -4.0916913e-001
 -4.1244800e-001
 -3.9839425e-001
 -3.8614883e-001
 -3.7082841e-001
 -3.7138329e-001
 -3.8195544e-001
 -3.9714580e-001
 -3.8796542e-001
 -3.8706993e-001
 -3.5823005e-001
 -3.4193790e-001
 -3.4747387e-001
 -3.5011199e-001
 -3.6160002e-001
 -3.4353281e-001
 -3.3682579e-001
 -3.1866484e-001
 -3.1917149e-001
 -3.2872168e-001
 -3.5151551e-001
 -3.4203324e-001
 -3.3689096e-001
 -3.2153348e-001
 -3.1482081e-001
 -3.2728222e-001
 -3.4241272e-001
 -3.4812650e-001
 -3.4603748e-001
 -3.3186651e-001
 -3.3854816e-001
 -3.5056571e-001
 -3.7284229e-001
 -4.1103501e-001
 -4.4382601e-001
 -4.5269015e-001
 -4.7551336e-001
 -4.9008229e-001
 -5.0645903e-001
 -5.3451741e-001
 -5.7039366e-001
 -5.7943314e-001
 -5.8945256e-001
 -5.8852334e-001
 -5.9482389e-001
 -6.0287254e-001
 -6.2058102e-001
 -6.3618298e-001
 -6.3395147e-001
 -6.3290781e-001
 -6.1451549e-001
 -6.0761745e-001
 -6.2514084e-001
 -6.2926506e-001
 -6.3195378e-001
 -6.1646906e-001
 -5.9814130e-001
 -5.8904035e-001
 -5.8100410e-001
 -5.8248606e-001
 -5.9980908e-001
 -5.9559650e-001
 -5.9333309e-001
 -5.8059709e-001
 -5.5783878e-001
 -5.5108118e-001
 -5.6212995e-001
 -5.8579104e-001
 -5.7530830e-001
 -5.7384177e-001
 -5.6120566e-001
 -5.7252859e-001
 -5.7774307e-001
 -5.9039984e-001
 -6.0373264e-001
 -6.0279103e-001
 -5.8293500e-001
 -5.8009812e-001
 -5.8908394e-001
 -6.0831660e-001
 -6.1619566e-001
 -6.1310674e-001
 -6.0367179e-001
 -6.0363167e-001
 -5.9287436e-001
 -5.9724295e-001
 -6.1457238e-001
 -6.2952454e-001
 -6.3260946e-001
 -6.2770562e-001
 -6.2321281e-001
 -6.2625270e-001
 -6.3010131e-001
 -6.4298352e-001
 -6.5772183e-001
 -6.4670051e-001
 -6.2909116e-001
 -6.1929721e-001
 -6.1039388e-001
 -6.2722175e-001
 -6.5019115e-001
 -6.4240059e-001
 -6.4274524e-001
 -6.3203316e-001
 -6.1935863e-001
 -6.2253748e-001
 -6.2482972e-001
 -6.2332261e-001
 -6.0421125e-001
 -5.7399563e-001
 -5.4282583e-001
 -5.2197922e-001
 -5.1229626e-001
 -4.9876474e-001
 -4.9114606e-001
 -4.8587707e-001
 -4.9158866e-001
 -4.8684133e-001
 -4.7955516e-001
 -4.9564186e-001
 -5.0674182e-001
 -5.3357432e-001
 -5.3219026e-001
 -5.5699756e-001
 -5.8009464e-001
 -6.0093988e-001
 -6.4268142e-001
 -6.5533355e-001
 -6.4609050e-001
 -6.3863023e-001
 -6.2178647e-001
 -6.3299966e-001
 -6.5285245e-001
 -6.6331225e-001
 -6.7565824e-001
 -6.7509608e-001
 -6.6126344e-001
 -6.5824150e-001
 -6.4594597e-001
 -6.5195837e-001
 -6.6450934e-001
 -6.5453205e-001
 -6.2759828e-001
 -6.0936708e-001
 -5.9323942e-001
 -5.8399140e-001
 -5.7761256e-001
 -5.6715324e-001
 -4.9121759e-001
 -2.9255810e-001
  7.0992143e-002
  6.2750038e-001
  1.2720677e+000
  1.6482145e+000
  1.3474893e+000
  3.6862133e-001
 -8.0444203e-001
 -1.4399895e+000
 -1.2602553e+000
 -8.2862698e-001
 -5.3776686e-001
 -4.5975011e-001
 -5.0254302e-001
 -5.5546662e-001
 -5.6242369e-001
 -5.7033361e-001
 -5.6469544e-001
 -5.7540469e-001
 -5.8356294e-001
 -5.7924380e-001
 -5.6383079e-001
 -5.6347175e-001
 -5.6877094e-001
 -5.8311423e-001
 -5.8444003e-001
 -5.7825709e-001
 -5.6443439e-001
 -5.6704188e-001
 -5.6071351e-001
 -5.6271147e-001
 -5.7983437e-001
 -5.7720023e-001
 -5.7159363e-001
 -5.6060289e-001
 -5.5211612e-001
 -5.5544903e-001
 -5.6178605e-001
 -5.6506754e-001
 -5.6982210e-001
 -5.6343128e-001
 -5.5307855e-001
 -5.4120539e-001
 -5.5164921e-001
 -5.5458190e-001
 -5.6117630e-001
 -5.6605134e-001
 -5.6085031e-001
 -5.3427451e-001
 -5.2254383e-001
 -5.2931459e-001
 -5.3775848e-001
 -5.3415534e-001
 -5.2464870e-001
 -5.2066208e-001
 -4.8978886e-001
 -4.9812256e-001
 -5.1156434e-001
 -5.0957475e-001
 -5.0001244e-001
 -4.8943986e-001
 -4.6692746e-001
 -4.5685296e-001
 -4.5484511e-001
 -4.6185950e-001
 -4.6696956e-001
 -4.5845875e-001
 -4.3331752e-001
 -4.2664890e-001
 -4.2042540e-001
 -4.1325614e-001
 -4.1988602e-001
 -4.2322407e-001
 -4.1229745e-001
 -4.0607962e-001
 -4.0605123e-001
 -4.0333586e-001
 -4.2489871e-001
 -4.4977182e-001
 -4.8547548e-001
 -5.0966632e-001
 -5.2042507e-001
 -5.3406529e-001
 -5.6366712e-001
 -6.0098309e-001
 -6.3277744e-001
 -6.4237314e-001
 -6.5393147e-001
 -6.4901740e-001
 -6.6421790e-001
 -6.8715550e-001
 -7.0032811e-001
 -7.0782463e-001
 -7.1021213e-001
 -6.9698883e-001
 -6.9594244e-001
 -7.0384620e-001
 -7.1378087e-001
 -7.2502453e-001
 -7.1840163e-001
 -7.1246014e-001
 -6.8207169e-001
 -6.7928692e-001
 -6.7978347e-001
 -6.8536803e-001
 -6.8464414e-001
 -6.7644058e-001
 -6.6963734e-001
 -6.5869880e-001
 -6.4219688e-001
 -6.5125413e-001
 -6.7037535e-001
 -6.6371271e-001
 -6.5940893e-001
 -6.5433385e-001
 -6.4833208e-001
 -6.5872853e-001
 -6.8016774e-001
 -6.7961171e-001
 -6.7757789e-001
 -6.8128247e-001
 -6.7094155e-001
 -6.8591278e-001
 -7.0004833e-001
 -6.8747422e-001
 -7.0341334e-001
 -6.9183521e-001
 -6.9325281e-001
 -6.8968405e-001
 -6.9479213e-001
 -7.0928583e-001
 -7.1380138e-001
 -7.2140510e-001
 -7.1207084e-001
 -7.0688682e-001
 -6.9316785e-001
 -7.0193437e-001
 -7.1427944e-001
 -7.2365619e-001
 -7.2494305e-001
 -7.1576098e-001
 -7.1373607e-001
 -7.0404836e-001
 -7.1049821e-001
 -7.2032783e-001
 -7.2557867e-001
 -7.1237181e-001
 -6.8463231e-001
 -6.5701944e-001
 -6.3694280e-001
 -6.3522204e-001
 -6.1977882e-001
 -6.0681149e-001
 -5.7227336e-001
 -5.5274134e-001
 -5.5921211e-001
 -5.7027752e-001
 -5.8340660e-001
 -5.8226332e-001
 -5.7719238e-001
 -5.7575206e-001
 -5.7715162e-001
 -5.8975879e-001
 -6.1863433e-001
 -6.7197330e-001
 -7.0191418e-001
 -7.2539755e-001
 -7.3195028e-001
 -6.9854002e-001
 -7.1053798e-001
 -7.2123725e-001
 -7.4126997e-001
 -7.5124971e-001
 -7.5327501e-001
 -7.3952218e-001
 -7.1965202e-001
 -7.2453618e-001
 -7.2920102e-001
 -7.4714740e-001
 -7.3725168e-001
 -7.3115148e-001
 -7.1506076e-001
 -7.1712081e-001
 -7.0971513e-001
 -7.0701881e-001
 -6.9336812e-001
 -6.7416191e-001
 -6.4521023e-001
 -5.8595029e-001
 -4.2251693e-001
 -8.6499025e-002
  4.9605976e-001
  1.1904147e+000
  1.5498705e+000
  1.1595477e+000
  9.8207097e-002
 -1.0596195e+000
 -1.5891876e+000
 -1.3215991e+000
 -8.8330987e-001
 -6.2438200e-001
 -5.7166296e-001
 -5.9771094e-001
 -6.4856185e-001
 -6.7683782e-001
 -6.8104220e-001
 -6.7081515e-001
 -6.5256853e-001
 -6.4450728e-001
 -6.4472617e-001
 -6.4952662e-001
 -6.7309769e-001
 -6.7250699e-001
 -6.6225323e-001
 -6.3535004e-001
 -6.3701865e-001
 -6.3604051e-001
 -6.5128740e-001
 -6.5981590e-001
 -6.4969271e-001
 -6.3600657e-001
 -6.3102325e-001
 -6.2683899e-001
 -6.3042826e-001
 -6.3487338e-001
 -6.4473755e-001
 -6.4383110e-001
 -6.2501122e-001
 -6.1204862e-001
 -6.0729205e-001
 -6.1598758e-001
 -6.2419284e-001
 -6.2353170e-001
 -6.1077231e-001
 -5.9578547e-001
 -5.8936964e-001
 -5.9785316e-001
 -6.0531524e-001
 -6.0950938e-001
 -6.1001086e-001
 -6.0607468e-001
 -5.8000257e-001
 -5.6307842e-001
 -5.7331080e-001
 -5.8116049e-001
 -5.8827305e-001
 -5.7042648e-001
 -5.6222718e-001
 -5.3326180e-001
 -5.2870751e-001
 -5.3048470e-001
 -5.4206007e-001
 -5.3897570e-001
 -5.1990660e-001
 -5.0829297e-001
 -5.0414635e-001
 -4.9700203e-001
 -4.8318723e-001
 -4.9561861e-001
 -4.9405725e-001
 -4.8972178e-001
 -4.8089161e-001
 -4.6786789e-001
 -4.7124845e-001
 -4.8936702e-001
 -5.1175679e-001
 -5.3055406e-001
 -5.5369896e-001
 -5.8338731e-001
 -6.0353337e-001
 -6.3415354e-001
 -6.8537964e-001
 -7.1297875e-001
 -7.2265500e-001
 -7.3774586e-001
 -7.3983491e-001
 -7.4474080e-001
 -7.6303021e-001
 -7.7637146e-001
 -7.8367637e-001
 -7.7823035e-001
 -7.6656116e-001
 -7.5944509e-001
 -7.6257809e-001
 -7.8302996e-001
 -7.9464951e-001
 -7.7547092e-001
 -7.5732958e-001
 -7.3948321e-001
 -7.3365844e-001
 -7.4947191e-001
 -7.6233793e-001
 -7.5798652e-001
 -7.5144701e-001
 -7.3903193e-001
 -7.2416388e-001
 -7.2420168e-001
 -7.3318925e-001
 -7.3658551e-001
 -7.3881329e-001
 -7.3301297e-001
 -7.1565983e-001
 -7.1759098e-001
 -7.3983326e-001
 -7.4327067e-001
 -7.5380669e-001
 -7.6293592e-001
 -7.6024913e-001
 -7.4482297e-001
 -7.5446097e-001
 -7.6439819e-001
 -7.6363964e-001
 -7.8384292e-001
 -7.7970546e-001
 -7.6838465e-001
 -7.5792092e-001
 -7.6423546e-001
 -7.7838303e-001
 -8.0777694e-001
 -8.1837096e-001
 -8.0162921e-001
 -7.9407454e-001
 -7.7143813e-001
 -7.7828579e-001
 -7.8248040e-001
 -7.9452591e-001
 -7.8599937e-001
 -7.6881125e-001
 -7.3730928e-001
 -7.1597270e-001
 -7.1439653e-001
 -7.0817409e-001
 -7.0000970e-001
 -6.8111961e-001
 -6.4688949e-001
 -6.1937371e-001
 -6.1631573e-001
 -6.3567343e-001
 -6.7034160e-001
 -6.7505962e-001
 -6.5325379e-001
 -6.4376509e-001
 -6.5470430e-001
 -6.6891355e-001
 -7.0079831e-001
 -7.4058309e-001
 -7.8525649e-001
 -7.9934723e-001
 -7.9261006e-001
 -7.9325758e-001
 -7.8586969e-001
 -8.1821502e-001
 -8.3467051e-001
 -8.3436754e-001
 -8.2814528e-001
 -8.1274610e-001
 -8.2941858e-001
 -8.3251417e-001
 -8.2487362e-001
 -8.2397520e-001
 -8.1692903e-001
 -8.0822502e-001
 -8.0150161e-001
 -7.9371324e-001
 -7.8696789e-001
 -7.7608533e-001
 -7.6312833e-001
 -7.4284205e-001
 -7.1498308e-001
 -6.3377879e-001
 -4.4703394e-001
 -5.1595316e-002
  5.8790805e-001
  1.2329202e+000
  1.4624736e+000
  9.2990875e-001
 -1.8243160e-001
 -1.2599829e+000
 -1.6309078e+000
 -1.3168645e+000
 -9.1074093e-001
 -6.9004140e-001
 -6.6724394e-001
 -7.0136010e-001
 -7.4070667e-001
 -7.5782536e-001
 -7.5588553e-001
 -7.3941924e-001
 -7.2845837e-001
 -7.1914028e-001
 -7.1468896e-001
 -7.2600471e-001
 -7.3437714e-001
 -7.3055587e-001
 -7.1133073e-001
 -6.9978960e-001
 -7.1482081e-001
 -7.2260908e-001
 -7.2970149e-001
 -7.3236388e-001
 -7.2606107e-001
 -7.0767639e-001
 -7.0350886e-001
 -6.9866346e-001
 -7.0552272e-001
 -7.1595577e-001
 -6.9516225e-001
 -6.9491040e-001
 -7.0389681e-001
 -7.0187469e-001
 -6.9624750e-001
 -7.0437289e-001
 -7.0940014e-001
 -7.0736435e-001
 -7.0172577e-001
 -6.8238580e-001
 -6.7678487e-001
 -6.7896819e-001
 -7.0131889e-001
 -7.0632254e-001
 -6.9360196e-001
 -6.6572228e-001
 -6.3945407e-001
 -6.4159849e-001
 -6.4545968e-001
 -6.5560636e-001
 -6.5689265e-001
 -6.3733350e-001
 -6.1232604e-001
 -6.0230782e-001
 -5.9850445e-001
 -6.0524984e-001
 -6.0528349e-001
 -6.1028089e-001
 -5.9354507e-001
 -5.8612591e-001
 -5.8715652e-001
 -5.8827264e-001
 -5.8903914e-001
 -5.9134920e-001
 -5.8135578e-001
 -5.6604726e-001
 -5.7503002e-001
 -5.6181440e-001
 -5.8122094e-001
 -5.9466826e-001
 -5.9983334e-001
 -6.0775013e-001
 -6.1291061e-001
 -6.3865016e-001
 -6.7644670e-001
 -7.2706426e-001
 -7.6299157e-001
 -7.8361551e-001
 -7.9846494e-001
 -8.0659456e-001
 -8.1493279e-001
 -8.3026915e-001
 -8.4950886e-001
 -8.6818722e-001
 -8.5312808e-001
 -8.4688285e-001
 -8.4682240e-001
 -8.5887891e-001
 -8.6309759e-001
 -8.6731800e-001
 -8.6399168e-001
 -8.6938188e-001
 -8.4957689e-001
 -8.3738727e-001
 -8.4459029e-001
 -8.5343046e-001
 -8.5016200e-001
 -8.4166983e-001
 -8.2664888e-001
 -8.1234938e-001
 -8.1144930e-001
 -8.2066440e-001
 -8.2785611e-001
 -8.2618751e-001
 -8.3013481e-001
 -8.2289996e-001
 -8.1358714e-001
 -8.2061186e-001
 -8.3633497e-001
 -8.4347346e-001
 -8.5054433e-001
 -8.3963872e-001
 -8.3518728e-001
 -8.3072438e-001
 -8.4168394e-001
 -8.6108434e-001
 -8.7132348e-001
 -8.5985325e-001
 -8.6096128e-001
 -8.5057582e-001
 -8.4662478e-001
 -8.5613698e-001
 -8.6574595e-001
 -8.7954608e-001
 -8.6718546e-001
 -8.5709273e-001
 -8.4554032e-001
 -8.3644521e-001
 -8.3363013e-001
 -8.2373565e-001
 -8.2202332e-001
 -7.9488962e-001
 -7.7347661e-001
 -7.4120524e-001
 -7.2282538e-001
 -7.2344864e-001
 -7.3278119e-001
 -7.5209625e-001
 -7.3545082e-001
 -7.2097246e-001
 -7.2385414e-001
 -7.4656509e-001
 -7.8108537e-001
 -8.1234014e-001
 -8.3980530e-001
 -8.6011848e-001
 -8.7895455e-001
 -8.8503467e-001
 -8.9670394e-001
 -9.0146881e-001
 -9.1194902e-001
 -9.0997920e-001
 -9.0211728e-001
 -9.0184701e-001
 -8.9935950e-001
 -9.1423550e-001
 -9.3042613e-001
 -9.2348605e-001
 -9.1658555e-001
 -8.9281791e-001
 -9.0169723e-001
 -9.0966808e-001
 -9.1237103e-001
 -9.0922906e-001
 -8.7945231e-001
 -8.3984395e-001
 -8.2026770e-001
 -8.2288871e-001
 -7.9601397e-001
 -6.9409680e-001
 -4.4403888e-001
  9.1789962e-002
  8.5005178e-001
  1.4431521e+000
  1.2181887e+000
  1.9675780e-001
 -1.0097838e+000
 -1.7121137e+000
 -1.3586963e+000
 -8.9197721e-001
 -6.5332446e-001
 -6.7946689e-001
 -7.8660986e-001
 -8.5292626e-001
 -8.4169685e-001
 -8.0408680e-001
 -7.8691612e-001
 -7.8797068e-001
 -7.9966037e-001
 -8.0683908e-001
 -8.1595554e-001
 -7.9119559e-001
 -7.7636930e-001
 -7.7687808e-001
 -7.9948402e-001
 -7.9202992e-001
 -7.9431760e-001
 -7.9880047e-001
 -7.8882206e-001
 -7.6300162e-001
 -7.6346884e-001
 -7.7918984e-001
 -7.8110559e-001
 -7.8142877e-001
 -7.7457164e-001
 -7.6710694e-001
 -7.5422054e-001
 -7.6448510e-001
 -7.6768972e-001
 -7.6866826e-001
 -7.6243448e-001
 -7.5638169e-001
 -7.4522148e-001
 -7.3548979e-001
 -7.3293018e-001
 -7.3709127e-001
 -7.4706769e-001
 -7.3807587e-001
 -7.3151625e-001
 -7.1568830e-001
 -6.9744393e-001
 -7.0357038e-001
 -7.0664445e-001
 -7.1117912e-001
 -7.0378738e-001
 -6.8628164e-001
 -6.5037657e-001
 -6.4453296e-001
 -6.4024319e-001
 -6.5172018e-001
 -6.5389842e-001
 -6.4407186e-001
 -6.2994217e-001
 -6.1523312e-001
 -6.1435116e-001
 -6.1454011e-001
 -6.2016488e-001
 -6.2712122e-001
 -6.0394144e-001
 -5.9716802e-001
 -5.9212091e-001
 -6.0232202e-001
 -6.2209884e-001
 -6.4088820e-001
 -6.4693670e-001
 -6.7239216e-001
 -6.9250194e-001
 -7.1526720e-001
 -7.4794212e-001
 -7.8893635e-001
 -8.2664732e-001
 -8.3178207e-001
 -8.4610242e-001
 -8.5722364e-001
 -8.6794441e-001
 -8.8600079e-001
 -8.9756133e-001
 -9.1106042e-001
 -8.9799451e-001
 -8.8324127e-001
 -8.8651783e-001
 -8.8865371e-001
 -8.9488808e-001
 -9.0436000e-001
 -8.9742890e-001
 -8.8946482e-001
 -8.7158747e-001
 -8.6622849e-001
 -8.7027363e-001
 -8.7750115e-001
 -8.7397822e-001
 -8.5752729e-001
 -8.4081524e-001
 -8.3786071e-001
 -8.3907338e-001
 -8.4088350e-001
 -8.4402239e-001
 -8.4094607e-001
 -8.4279072e-001
 -8.3537138e-001
 -8.3323370e-001
 -8.4696877e-001
 -8.5927493e-001
 -8.5400373e-001
 -8.5230734e-001
 -8.5191913e-001
 -8.3798774e-001
 -8.5017276e-001
 -8.4659590e-001
 -8.6588646e-001
 -8.7563808e-001
 -8.6376148e-001
 -8.5591190e-001
 -8.4657701e-001
 -8.6137606e-001
 -8.6639545e-001
 -8.7229125e-001
 -8.8395251e-001
 -8.8472262e-001
 -8.6596270e-001
 -8.6317682e-001
 -8.7714699e-001
 -8.8733994e-001
 -8.9271350e-001
 -8.9199089e-001
 -8.8017739e-001
 -8.5935919e-001
 -8.6460879e-001
 -8.6582250e-001
 -8.7509550e-001
 -8.7975913e-001
 -8.7593026e-001
 -8.5719774e-001
 -8.3391801e-001
 -8.2791101e-001
 -8.1360618e-001
 -8.1219500e-001
 -7.9849313e-001
 -7.8087613e-001
 -7.3853043e-001
 -7.1345655e-001
 -6.9210728e-001
 -7.1266355e-001
 -7.2617797e-001
 -7.2407685e-001
 -7.1140209e-001
 -6.9997550e-001
 -6.9977864e-001
 -7.1698238e-001
 -7.3934377e-001
 -7.6449660e-001
 -7.8771984e-001
 -8.0939005e-001
 -8.3008378e-001
 -8.5036183e-001
 -8.6167307e-001
 -8.6194829e-001
 -8.6495974e-001
 -8.5421932e-001
 -8.5485861e-001
 -8.6022319e-001
 -8.6463619e-001
 -8.7473080e-001
 -8.8592791e-001
 -8.8103707e-001
 -8.5131709e-001
 -8.3622889e-001
 -8.4613962e-001
 -8.4264076e-001
 -8.5387105e-001
 -8.4218866e-001
 -8.3205890e-001
 -8.1084087e-001
 -7.7329479e-001
 -7.5062481e-001
 -7.1498437e-001
 -5.7972427e-001
 -2.6411494e-001
  3.1168241e-001
  1.0237730e+000
  1.5136181e+000
  1.2604590e+000
  2.8247993e-001
 -9.2005161e-001
 -1.6323362e+000
 -1.4619337e+000
 -1.0176199e+000
 -7.0927066e-001
 -6.4209051e-001
 -7.0230628e-001
 -7.5111519e-001
 -7.7926890e-001
 -7.5818114e-001
 -7.2463878e-001
 -7.3515261e-001
 -7.4813518e-001
 -7.4981905e-001
 -7.4946757e-001
 -7.3995842e-001
 -7.2976170e-001
 -7.2828550e-001
 -7.2991390e-001
 -7.3970253e-001
 -7.6135629e-001
 -7.4106812e-001
 -7.1873225e-001
 -7.1226028e-001
 -7.1161976e-001
 -7.2146095e-001
 -7.3546291e-001
 -7.4240429e-001
 -7.3694781e-001
 -7.2642173e-001
 -7.1049539e-001
 -7.1329550e-001
 -7.3012135e-001
 -7.2842570e-001
 -7.1502497e-001
 -7.1026910e-001
 -7.0452589e-001
 -7.0430815e-001
 -6.8697431e-001
 -6.9307435e-001
 -7.0462958e-001
 -6.8941359e-001
 -6.7732826e-001
 -6.6061800e-001
 -6.5506139e-001
 -6.5832897e-001
 -6.7089039e-001
 -6.6328410e-001
 -6.5261938e-001
 -6.3018589e-001
 -6.2807249e-001
 -6.2988573e-001
 -6.3020429e-001
 -6.2727261e-001
 -6.1383429e-001
 -6.0471156e-001
 -5.8020001e-001
 -5.6820172e-001
 -5.6905894e-001
 -5.7197616e-001
 -5.8032229e-001
 -5.7522418e-001
 -5.5541798e-001
 -5.4842481e-001
 -5.3412612e-001
 -5.5147185e-001
 -5.6683871e-001
 -5.6014669e-001
 -5.4904855e-001
 -5.1728233e-001
 -5.1834635e-001
 -5.2819694e-001
 -5.6700896e-001
 -6.0396951e-001
 -6.1597351e-001
 -6.3675109e-001
 -6.4463448e-001
 -6.6983713e-001
 -7.0558535e-001
 -7.2849694e-001
 -7.5997925e-001
 -7.6425970e-001
 -7.7257963e-001
 -7.6577971e-001
 -7.7003322e-001
 -7.9203677e-001
 -8.0471563e-001
 -8.0743645e-001
 -8.1753010e-001
 -7.9644558e-001
 -7.8304928e-001
 -7.8778601e-001
 -8.0247901e-001
 -8.0855857e-001
 -8.0717947e-001
 -8.0081545e-001
 -7.8329527e-001
 -7.7875562e-001
 -7.8397686e-001
 -7.9195168e-001
 -7.8382665e-001
 -7.8329291e-001
 -7.6541645e-001
 -7.5371297e-001
 -7.4828437e-001
 -7.4522946e-001
 -7.6499382e-001
 -7.5893389e-001
 -7.5409447e-001
 -7.4147331e-001
 -7.3429983e-001
 -7.5447167e-001
 -7.5110761e-001
 -7.7286466e-001
 -7.7370139e-001
 -7.5899862e-001
 -7.5004780e-001
 -7.4937654e-001
 -7.6076673e-001
 -7.7044374e-001
 -7.8190225e-001
 -7.8604779e-001
 -7.7564835e-001
 -7.6790009e-001
 -7.6504833e-001
 -7.6476146e-001
 -7.8530400e-001
 -8.0107930e-001
 -7.8721554e-001
 -7.7616063e-001
 -7.7370854e-001
 -7.7728285e-001
 -7.8467641e-001
 -7.9589579e-001
 -8.0275891e-001
 -7.8662706e-001
 -7.7081741e-001
 -7.6927636e-001
 -7.6845440e-001
 -7.8509654e-001
 -7.9219592e-001
 -7.9832270e-001
 -7.7928955e-001
 -7.7192199e-001
 -7.7688681e-001
 -7.8552152e-001
 -7.8943220e-001
 -7.9104284e-001
 -7.8916114e-001
 -7.7903219e-001
 -7.5785408e-001
 -7.6824787e-001
 -7.6700722e-001
 -7.5680578e-001
 -7.3842924e-001
 -7.1371817e-001
 -6.7900200e-001
 -6.6171968e-001
 -6.4746135e-001
 -6.3968534e-001
 -6.3916057e-001
 -6.3669004e-001
 -6.3624227e-001
 -6.1939247e-001
 -6.2321701e-001
 -6.2926214e-001
 -6.4579255e-001
 -6.7191684e-001
 -6.7958317e-001
 -6.9141477e-001
 -7.1420242e-001
 -7.4389968e-001
 -7.5460729e-001
 -7.6604376e-001
 -7.6614604e-001
 -7.6107919e-001
 -7.5737832e-001
 -7.5171334e-001
 -7.5716014e-001
 -7.7516586e-001
 -7.8783003e-001
 -7.8756648e-001
 -7.8709786e-001
 -7.5930926e-001
 -7.5151471e-001
 -7.5517530e-001
 -7.6064999e-001
 -7.4863605e-001
 -7.2926265e-001
 -7.0277675e-001
 -6.6708310e-001
 -6.4755623e-001
 -6.1949339e-001
 -4.9455261e-001
 -1.8402982e-001
  3.6855624e-001
  1.0611424e+000
  1.5828132e+000
  1.3626168e+000
  3.6990985e-001
 -8.2842590e-001
 -1.5797513e+000
 -1.3272427e+000
 -8.4942221e-001
 -5.7200044e-001
 -5.4910587e-001
 -6.2467451e-001
 -6.9238557e-001
 -6.8823883e-001
 -6.6222761e-001
 -6.4045290e-001
 -6.3858990e-001
 -6.4150399e-001
 -6.5309814e-001
 -6.5487335e-001
 -6.3593772e-001
 -6.1881024e-001
 -6.1030692e-001
 -6.2055835e-001
 -6.3217256e-001
 -6.3548161e-001
 -6.3660007e-001
 -6.2518326e-001
 -6.3113115e-001
 -6.1726255e-001
 -6.1987519e-001
 -6.3094744e-001
 -6.4540194e-001
 -6.2756077e-001
 -6.1195362e-001
 -6.0439266e-001
 -6.0261874e-001
 -6.2186569e-001
 -6.2385218e-001
 -6.2503907e-001
 -6.0708241e-001
 -6.0645829e-001
 -5.9607300e-001
 -5.9968437e-001
 -6.0535236e-001
 -6.1256242e-001
 -6.0606470e-001
 -5.9521882e-001
 -5.8283186e-001
 -5.6214693e-001
 -5.6994194e-001
 -5.7901182e-001
 -5.7803849e-001
 -5.7015641e-001
 -5.5821640e-001
 -5.4187335e-001
 -5.4346574e-001
 -5.3907427e-001
 -5.4364733e-001
 -5.3511057e-001
 -5.2888556e-001
 -5.1848013e-001
 -4.9590092e-001
 -4.9691165e-001
 -4.9648104e-001
 -5.0018015e-001
 -5.0118301e-001
 -4.9686727e-001
 -4.7512352e-001
 -4.7392302e-001
 -4.8021666e-001
 -4.8913200e-001
 -4.9380539e-001
 -4.9335926e-001
 -4.6999916e-001
 -4.7189425e-001
 -4.9606889e-001
 -5.1844222e-001
 -5.5401827e-001
 -5.8913634e-001
 -5.9748148e-001
 -6.1628958e-001
 -6.2765024e-001
 -6.5516120e-001
 -6.7714514e-001
 -6.9942471e-001
 -7.0966243e-001
 -7.0112561e-001
 -7.1255960e-001
 -7.1411087e-001
 -7.1290951e-001
 -7.2540707e-001
 -7.3843140e-001
 -7.3180427e-001
 -7.1845260e-001
 -7.0163593e-001
 -7.0515867e-001
 -7.0898640e-001
 -7.1715163e-001
 -7.1747007e-001
 -7.0776867e-001
 -6.9847970e-001
 -6.7526174e-001
 -6.7896707e-001
 -6.8966223e-001
 -7.0105456e-001
 -6.9622546e-001
 -6.8052792e-001
 -6.5798548e-001
 -6.4969218e-001
 -6.5334581e-001
 -6.6682608e-001
 -6.7129057e-001
 -6.7069179e-001
 -6.5918144e-001
 -6.5167032e-001
 -6.6383780e-001
 -6.7449467e-001
 -6.9384732e-001
 -6.9396588e-001
 -6.7734353e-001
 -6.6794210e-001
 -6.6945201e-001
 -6.8501399e-001
 -6.9870588e-001
 -7.0633607e-001
 -7.0338718e-001
 -6.9308149e-001
 -6.7596176e-001
 -6.7755643e-001
 -6.8421220e-001
 -6.8722387e-001
 -6.9452253e-001
 -6.9246355e-001
 -6.6831160e-001
 -6.6759747e-001
 -6.7424182e-001
 -6.7841333e-001
 -6.7066337e-001
 -6.4428338e-001
 -6.2579393e-001
 -5.8210088e-001
 -5.5976702e-001
 -5.5062066e-001
 -5.3527240e-001
 -5.4392043e-001
 -5.4153087e-001
 -5.3846964e-001
 -5.2027317e-001
 -5.1256994e-001
 -5.1846154e-001
 -5.4338584e-001
 -5.8915066e-001
 -6.2465482e-001
 -6.3791555e-001
 -6.4328571e-001
 -6.5763158e-001
 -6.5612681e-001
 -6.6480378e-001
 -6.5632994e-001
 -6.5488195e-001
 -6.6792137e-001
 -6.6164946e-001
 -6.4748539e-001
 -6.5822402e-001
 -6.6448684e-001
 -6.5102084e-001
 -6.4854592e-001
 -6.2909097e-001
 -6.1602271e-001
 -6.2032573e-001
 -6.0702409e-001
 -6.0731129e-001
 -5.9701099e-001
 -5.7115942e-001
 -5.3442003e-001
 -4.8747647e-001
 -3.8542443e-001
 -1.7117023e-001
  2.1727687e-001
  8.5067912e-001
  1.4843869e+000
  1.6980806e+000
  1.0234298e+000
 -1.3626006e-001
 -1.2104905e+000
 -1.3702435e+000
 -8.5058175e-001
 -4.5271209e-001
 -3.3281946e-001
 -3.9245007e-001
 -4.8891464e-001
 -5.2387431e-001
 -5.1377958e-001
 -4.7884169e-001
 -4.3236117e-001
 -4.3260060e-001
 -4.4513593e-001
 -4.6284646e-001
 -4.5835281e-001
 -4.4142697e-001
 -4.2798623e-001
 -4.1207017e-001
 -4.2096618e-001
 -4.2593231e-001
 -4.2362886e-001
 -4.3139284e-001
 -4.2072749e-001
 -4.0189830e-001
 -3.8190127e-001
 -3.9367737e-001
 -4.1147509e-001
 -4.1294213e-001
 -4.0418301e-001
 -3.9248057e-001
 -3.6878462e-001
 -3.6821616e-001
 -3.6323317e-001
 -3.8489580e-001
 -3.8524595e-001
 -3.7738842e-001
 -3.5629980e-001
 -3.3116858e-001
 -3.2981348e-001
 -3.3685676e-001
 -3.4872642e-001
 -3.3805680e-001
 -3.2935334e-001
 -3.0022918e-001
 -2.9322288e-001
 -2.8576174e-001
 -2.8954000e-001
 -2.9157376e-001
 -2.6703014e-001
 -2.5349418e-001
 -2.2902452e-001
 -2.2904751e-001
 -2.3531000e-001
 -2.3521294e-001
 -2.3658563e-001
 -2.2599937e-001
 -1.9933457e-001
 -1.8320719e-001
 -1.8897041e-001
 -1.9406557e-001
 -1.9339518e-001
 -1.8666658e-001
 -1.8419329e-001
 -1.7260507e-001
 -1.6815672e-001
 -1.6586275e-001
 -1.6996955e-001
 -1.8846410e-001
 -2.0010065e-001
 -2.1926690e-001
 -2.2596193e-001
 -2.5042006e-001
 -2.7941592e-001
 -3.2503050e-001
 -3.6309185e-001
 -3.8494843e-001
 -3.8594753e-001
 -3.9381742e-001
 -4.0563342e-001
 -4.2049298e-001
 -4.3048213e-001
 -4.3800122e-001
 -4.3124125e-001
 -4.2090181e-001
 -4.1869490e-001
 -4.2018392e-001
 -4.1941037e-001
 -4.2298979e-001
 -4.2016835e-001
 -4.0037489e-001
 -3.8440137e-001
 -3.7998640e-001
 -3.8807732e-001
 -3.9907541e-001
 -4.0618284e-001
 -3.9148808e-001
 -3.7025299e-001
 -3.5076781e-001
 -3.4665577e-001
 -3.6452385e-001
 -3.6123693e-001
 -3.6897666e-001
 -3.6281521e-001
 -3.5710370e-001
 -3.4324077e-001
 -3.5501495e-001
 -3.6835503e-001
 -3.7435732e-001
 -3.7390555e-001
 -3.7174009e-001
 -3.6061991e-001
 -3.5830635e-001
 -3.7420134e-001
 -3.8817332e-001
 -3.8233171e-001
 -3.9062951e-001
 -3.7914325e-001
 -3.6572503e-001
 -3.8024542e-001
 -3.9392142e-001
 -3.9934096e-001
 -4.0452911e-001
 -3.8897513e-001
 -3.8350234e-001
 -3.7597873e-001
 -3.6974536e-001
 -3.5241273e-001
 -3.3498591e-001
 -3.1925292e-001
 -2.9913384e-001
 -2.6796698e-001
 -2.6102826e-001
 -2.2998582e-001
 -2.2852141e-001
 -2.4958466e-001
 -2.5006233e-001
 -2.4213205e-001
 -2.2643305e-001
 -2.1838096e-001
 -2.3932437e-001
 -2.6185434e-001
 -2.9689036e-001
 -3.2418738e-001
 -3.4533585e-001
 -3.6184265e-001
 -3.8604604e-001
 -3.8956104e-001
 -4.0768788e-001
 -4.0657056e-001
 -3.9855864e-001
 -3.9567773e-001
 -3.9909965e-001
 -4.1256073e-001
 -4.1443963e-001
 -4.1811138e-001
 -4.1623361e-001
 -4.1128558e-001
 -4.0392770e-001
 -4.0338819e-001
 -4.0243199e-001
 -4.0278428e-001
 -3.9043535e-001
 -3.7529003e-001
 -3.5185701e-001
 -3.3383478e-001
 -3.1849316e-001
 -3.0625354e-001
 -2.4568212e-001
 -3.0412230e-002
  3.5750241e-001
  9.6217667e-001
  1.5882893e+000
  1.8735084e+000
  1.4242638e+000
  3.5790468e-001
 -7.7553038e-001
 -1.2111620e+000
 -8.6349694e-001
 -4.2986903e-001
 -1.9569729e-001
 -1.8401884e-001
 -2.4207925e-001
 -2.9348165e-001
 -2.9673503e-001
 -2.7710229e-001
 -2.7238948e-001
 -2.8265829e-001
 -2.9312238e-001
 -2.9603799e-001
 -2.8751040e-001
 -2.7219349e-001
 -2.6249474e-001
 -2.7424259e-001
 -2.8380090e-001
 -2.8934986e-001
 -2.8028367e-001
 -2.6363552e-001
 -2.6024130e-001
 -2.6387471e-001
 -2.6634261e-001
 -2.7131664e-001
 -2.7173219e-001
 -2.7549078e-001
 -2.5942103e-001
 -2.6171054e-001
 -2.5677429e-001
 -2.5910458e-001
 -2.6343835e-001
 -2.6810679e-001
 -2.5241734e-001
 -2.3521998e-001
 -2.2604813e-001
 -2.3461306e-001
 -2.4517562e-001
 -2.5197342e-001
 -2.2930790e-001
 -2.2791830e-001
 -2.2008604e-001
 -2.2771752e-001
 -2.3418689e-001
 -2.3603780e-001
 -2.2492859e-001
 -2.0467082e-001
 -1.9374859e-001
 -1.7952683e-001
 -1.8791932e-001
 -1.9679149e-001
 -1.9705314e-001
 -1.8175701e-001
 -1.7254853e-001
 -1.5747680e-001
 -1.4943883e-001
 -1.3956400e-001
 -1.4414220e-001
 -1.4134873e-001
 -1.3361393e-001
 -1.2421813e-001
 -1.0449375e-001
 -1.1561058e-001
 -1.3430054e-001
 -1.3265372e-001
 -1.2501297e-001
 -1.2139304e-001
 -1.0372713e-001
 -1.0150239e-001
 -1.0730361e-001
 -1.2192958e-001
 -1.5428527e-001
 -1.8121840e-001
 -1.9388200e-001
 -2.1746291e-001
 -2.5021644e-001
 -2.8072950e-001
 -3.1978286e-001
 -3.5435655e-001
 -3.6084759e-001
 -3.6916098e-001
 -3.7948576e-001
 -3.8940504e-001
 -4.1490403e-001
 -4.3306103e-001
 -4.4720164e-001
 -4.3558696e-001
 -4.3429818e-001
 -4.1742845e-001
 -4.2192846e-001
 -4.3604479e-001
 -4.4625749e-001
 -4.4350821e-001
 -4.2983124e-001
 -4.1475089e-001
 -4.0962070e-001
 -4.2364067e-001
 -4.1846176e-001
 -4.2209105e-001
 -4.0885216e-001
 -3.9437031e-001
 -3.8644338e-001
 -3.8612127e-001
 -3.9827680e-001
 -3.9626607e-001
 -3.8982995e-001
 -3.8662613e-001
 -3.7843416e-001
 -3.8003799e-001
 -3.7727254e-001
 -3.9158660e-001
 -4.0107520e-001
 -4.1037341e-001
 -4.0844281e-001
 -4.0466303e-001
 -4.0267863e-001
 -4.1984627e-001
 -4.3493849e-001
 -4.4719741e-001
 -4.4450893e-001
 -4.3276387e-001
 -4.2934483e-001
 -4.3537999e-001
 -4.4618796e-001
 -4.5662005e-001
 -4.6105717e-001
 -4.5073180e-001
 -4.4490636e-001
 -4.3387643e-001
 -4.5806949e-001
 -4.5385079e-001
 -4.6056329e-001
 -4.8146657e-001
 -4.6108988e-001
 -4.6540239e-001
 -4.5369955e-001
 -4.5006987e-001
 -4.5033958e-001
 -4.3649186e-001
 -4.0982016e-001
 -3.8723326e-001
 -3.6897657e-001
 -3.5116762e-001
 -3.5433124e-001
 -3.4490197e-001
 -3.2953003e-001
 -2.9504425e-001
 -3.0207091e-001
 -3.1030624e-001
 -3.2552962e-001
 -3.2049129e-001
 -3.3765032e-001
 -3.4524384e-001
 -3.5811229e-001
 -3.5911752e-001
 -3.8221290e-001
 -4.4125364e-001
 -4.7672174e-001
 -5.0890291e-001
 -5.1042152e-001
 -5.0928859e-001
 -4.9718714e-001
 -4.8955391e-001
 -4.9408915e-001
 -5.1931939e-001
 -5.3708167e-001
 -5.1827217e-001
 -5.0865910e-001
 -5.1340803e-001
 -5.1577331e-001
 -5.1229729e-001
 -5.1710289e-001
 -5.2315095e-001
 -5.1171426e-001
 -4.8238481e-001
 -4.7535281e-001
 -4.8285543e-001
 -4.8933196e-001
 -4.7410385e-001
 -4.3427294e-001
 -3.6900912e-001
 -1.9399369e-001
  1.0604585e-001
  6.1395039e-001
  1.2202007e+000
  1.6400805e+000
  1.4671544e+000
  6.0305816e-001
 -5.6211724e-001
 -1.2766533e+000
 -1.1856223e+000
 -7.8015270e-001
 -4.4795108e-001
 -3.3960821e-001
 -3.6145417e-001
 -4.1756663e-001
 -4.5612289e-001
 -4.6381583e-001
 -4.6574079e-001
 -4.4156775e-001
 -4.2240297e-001
 -4.2750154e-001
 -4.3521927e-001
 -4.3417155e-001
 -4.4736296e-001
 -4.4800632e-001
 -4.4363669e-001
 -4.1555619e-001
 -4.1346838e-001
 -4.2779934e-001
 -4.2822887e-001
 -4.4112256e-001
 -4.3555107e-001
 -4.4238108e-001
 -4.1677663e-001
 -4.1753880e-001
 -4.3547761e-001
 -4.4147056e-001
 -4.4552331e-001
 -4.3901201e-001
 -4.2807821e-001
 -4.1805872e-001
 -4.1527083e-001
 -4.3256610e-001
 -4.3333971e-001
 -4.4017235e-001
 -4.2828705e-001
 -4.1171282e-001
 -3.9533855e-001
 -4.0557655e-001
 -4.1765993e-001
 -4.2139131e-001
 -4.2815596e-001
 -4.0063182e-001
 -3.8861395e-001
 -3.7544816e-001
 -3.8535044e-001
 -3.8824090e-001
 -3.8229065e-001
 -3.7852417e-001
 -3.5878651e-001
 -3.4928047e-001
 -3.4274815e-001
 -3.3984074e-001
 -3.5142724e-001
 -3.4703359e-001
 -3.4526901e-001
 -3.2840432e-001
 -3.0931534e-001
 -3.1222699e-001
 -3.1632583e-001
 -3.3047507e-001
 -3.3901474e-001
 -3.3240486e-001
 -3.1538841e-001
 -3.0511101e-001
 -3.1340169e-001
 -3.1895512e-001
 -3.4208329e-001
 -3.6867491e-001
 -3.7734353e-001
 -4.0252342e-001
 -4.1612206e-001
 -4.4811756e-001
 -4.9938723e-001
 -5.1926944e-001
 -5.3019075e-001
 -5.4299683e-001
 -5.5391313e-001
 -5.7256625e-001
 -5.8881298e-001
 -6.0497365e-001
 -6.1064914e-001
 -6.0184142e-001
 -5.9507936e-001
 -5.8207161e-001
 -6.0083817e-001
 -6.2107158e-001
 -6.1988445e-001
 -6.2424388e-001
 -6.0131153e-001
 -5.9721085e-001
 -5.8946440e-001
 -5.9703615e-001
 -6.0494003e-001
 -6.0785092e-001
 -5.9616497e-001
 -5.8227038e-001
 -5.6241962e-001
 -5.6214264e-001
 -5.7424807e-001
 -5.7529657e-001
 -5.8047538e-001
 -5.6694204e-001
 -5.5869376e-001
 -5.5514482e-001
 -5.6743660e-001
 -5.6704613e-001
 -5.8631129e-001
 -5.8380252e-001
 -5.8912428e-001
 -5.8826310e-001
 -5.8490239e-001
 -6.0903146e-001
 -6.1231381e-001
 -6.1602575e-001
 -6.2115279e-001
 -6.1377896e-001
 -6.0176796e-001
 -6.1843855e-001
 -6.3614795e-001
 -6.3315066e-001
 -6.3714463e-001
 -6.3234432e-001
 -6.1698109e-001
 -6.1524935e-001
 -6.2271897e-001
 -6.2950235e-001
 -6.4177295e-001
 -6.4381818e-001
 -6.3034012e-001
 -6.2516205e-001
 -6.3314639e-001
 -6.3681123e-001
 -6.4281841e-001
 -6.5880611e-001
 -6.4619595e-001
 -6.4314891e-001
 -6.3016648e-001
 -6.4265488e-001
 -6.4426948e-001
 -6.4010244e-001
 -6.4149053e-001
 -6.1696051e-001
 -5.8584945e-001
 -5.6672942e-001
 -5.5646811e-001
 -5.5644929e-001
 -5.4418055e-001
 -5.1634295e-001
 -4.8306324e-001
 -4.7734460e-001
 -4.8549195e-001
 -5.0762027e-001
 -5.2201906e-001
 -5.2212934e-001
 -5.1316354e-001
 -5.1971895e-001
 -5.1587390e-001
 -5.4958789e-001
 -5.9700420e-001
 -6.4900903e-001
 -6.7319844e-001
 -6.6836118e-001
 -6.5554421e-001
 -6.4744662e-001
 -6.6669014e-001
 -6.9108890e-001
 -6.9662607e-001
 -6.8137872e-001
 -6.8484002e-001
 -6.7623456e-001
 -6.8433390e-001
 -6.7908074e-001
 -6.9089050e-001
 -6.9485594e-001
 -6.8553925e-001
 -6.7710682e-001
 -6.6463447e-001
 -6.5078694e-001
 -6.4725460e-001
 -6.3686465e-001
 -6.2110264e-001
 -6.0099885e-001
 -5.2095180e-001
 -3.3258656e-001
  6.8220534e-002
  6.9598165e-001
  1.3222312e+000
  1.5420780e+000
  9.5244380e-001
 -1.8830247e-001
 -1.2242441e+000
 -1.4693561e+000
 -1.0901870e+000
 -6.9625839e-001
 -4.9796774e-001
 -4.8739832e-001
 -5.4474427e-001
 -5.9002159e-001
 -6.0443825e-001
 -6.0541508e-001
 -5.9904371e-001
 -5.9490150e-001
 -5.7347489e-001
 -5.7965268e-001
 -5.8189534e-001
 -5.8131946e-001
 -5.8725241e-001
 -5.8324408e-001
 -5.7443006e-001
 -5.7499243e-001
 -5.7021548e-001
 -5.7781344e-001
 -5.8609609e-001
 -6.0075037e-001
 -5.9480680e-001
 -5.8332896e-001
 -5.7219261e-001
 -5.6819524e-001
 -5.7328076e-001
 -5.8067107e-001
 -5.9101735e-001
 -5.7639302e-001
 -5.6331475e-001
 -5.5231839e-001
 -5.6147674e-001
 -5.7236293e-001
 -5.7269956e-001
 -5.7196720e-001
 -5.5935739e-001
 -5.4695582e-001
 -5.4069724e-001
 -5.4826825e-001
 -5.5078201e-001
 -5.4967607e-001
 -5.3347467e-001
 -5.2688756e-001
 -5.0640409e-001
 -5.0653181e-001
 -5.1407750e-001
 -5.2257583e-001
 -5.2226779e-001
 -5.0670975e-001
 -4.9204483e-001
 -4.7595785e-001
 -4.8797796e-001
 -4.9024843e-001
 -4.8745016e-001
 -4.9199674e-001
 -4.7842189e-001
 -4.5733363e-001
 -4.6574144e-001
 -4.7686457e-001
 -4.8798119e-001
 -4.9307349e-001
 -4.7769951e-001
 -4.6545666e-001
 -4.5273467e-001
 -4.5977547e-001
 -4.7890471e-001
 -5.0858373e-001
 -5.3317730e-001
 -5.3933812e-001
 -5.4994326e-001
 -5.7125027e-001
 -6.0941820e-001
 -6.3061240e-001
 -6.6881447e-001
 -6.8497837e-001
 -6.8613375e-001
 -6.8079920e-001
 -6.9399452e-001
 -7.1065463e-001
 -7.1356301e-001
 -7.3490764e-001
 -7.2850897e-001
 -7.2579520e-001
 -7.0116337e-001
 -6.9561425e-001
 -7.0609278e-001
 -7.1124320e-001
 -7.1217390e-001
 -7.0719912e-001
 -6.9095084e-001
 -6.7932481e-001
 -6.8659344e-001
 -6.9923607e-001
 -7.1249306e-001
 -7.0701566e-001
 -6.7194223e-001
 -6.6321484e-001
 -6.5406223e-001
 -6.5413430e-001
 -6.7126216e-001
 -6.8777463e-001
 -6.8064811e-001
 -6.6748225e-001
 -6.6399085e-001
 -6.7716068e-001
 -6.8774011e-001
 -7.1164459e-001
 -7.0398201e-001
 -6.9131509e-001
 -6.8433603e-001
 -6.9210132e-001
 -6.8707968e-001
 -7.0746635e-001
 -7.1877864e-001
 -7.2063945e-001
 -7.1553503e-001
 -7.1129965e-001
 -7.1709974e-001
 -7.1934516e-001
 -7.3998308e-001
 -7.4317749e-001
 -7.3634804e-001
 -7.2854640e-001
 -7.2043768e-001
 -7.2672774e-001
 -7.4019628e-001
 -7.5401318e-001
 -7.5346857e-001
 -7.4177808e-001
 -7.2574132e-001
 -7.2158436e-001
 -7.3006177e-001
 -7.4463776e-001
 -7.3772076e-001
 -7.3286866e-001
 -7.1241171e-001
 -6.8448197e-001
 -6.7137819e-001
 -6.7981642e-001
 -6.6073042e-001
 -6.4333069e-001
 -6.1245342e-001
 -5.8121326e-001
 -5.5234213e-001
 -5.5462254e-001
 -5.8633181e-001
 -6.0005002e-001
 -5.9729994e-001
 -5.9653290e-001
 -6.1322392e-001
 -6.2861682e-001
 -6.6361992e-001
 -7.1745208e-001
 -7.4660712e-001
 -7.3461813e-001
 -7.4842059e-001
 -7.3803198e-001
 -7.2896863e-001
 -7.4175170e-001
 -7.6130433e-001
 -7.7333188e-001
 -7.8210451e-001
 -7.7321474e-001
 -7.5705633e-001
 -7.5641977e-001
 -7.4417411e-001
 -7.5214130e-001
 -7.5899529e-001
 -7.4395815e-001
 -7.2897875e-001
 -7.0356405e-001
 -6.9140098e-001
 -7.0246919e-001
 -6.8766704e-001
 -6.0417968e-001
 -3.6232725e-001
  8.0942291e-002
  7.3910249e-001
  1.3474560e+000
  1.4962113e+000
  7.9819515e-001
 -3.7025977e-001
 -1.4052600e+000
 -1.4844230e+000
 -9.9102005e-001
 -6.4351743e-001
 -5.3735548e-001
 -5.9123238e-001
 -6.4975634e-001
 -6.7015821e-001
 -6.5469556e-001
 -6.3354245e-001
 -6.3735411e-001
 -6.5083759e-001
 -6.4685335e-001
 -6.4007261e-001
 -6.2452350e-001
 -6.0893536e-001
 -6.2579866e-001
 -6.2353803e-001
 -6.3323068e-001
 -6.2558780e-001
 -6.1670241e-001
 -6.0527417e-001
 -6.0725558e-001
 -6.1727977e-001
 -6.3058451e-001
 -6.3397371e-001
 -6.2152938e-001
 -6.0081440e-001
 -5.8362821e-001
 -5.8245713e-001
 -5.9762050e-001
 -6.1046451e-001
 -6.0791856e-001
 -5.9231500e-001
 -5.7358370e-001
 -5.6782352e-001
 -5.8257297e-001
 -5.8800081e-001
 -5.9369080e-001
 -5.7565777e-001
 -5.6294506e-001
 -5.4762881e-001
 -5.4792166e-001
 -5.4908090e-001
 -5.5161738e-001
 -5.4669967e-001
 -5.4350886e-001
 -5.1564706e-001
 -4.8784487e-001
 -5.0160734e-001
 -5.1403190e-001
 -5.3269446e-001
 -5.1686398e-001
 -4.8760098e-001
 -4.7158350e-001
 -4.6255915e-001
 -4.6884352e-001
 -4.6587241e-001
 -4.7281583e-001
 -4.7184823e-001
 -4.5756403e-001
 -4.4698447e-001
 -4.5456478e-001
 -4.5569634e-001
 -4.5967609e-001
 -4.6423646e-001
 -4.6921070e-001
 -4.4322662e-001
 -4.3602636e-001
 -4.3572124e-001
 -4.4143042e-001
 -4.5684589e-001
 -4.5863120e-001
 -4.7395006e-001
 -4.8602543e-001
 -5.0610864e-001
 -5.3333104e-001
 -5.6410650e-001
 -5.9167079e-001
 -6.0825980e-001
 -6.1417973e-001
 -6.0965796e-001
 -6.2641160e-001
 -6.4141675e-001
 -6.5267909e-001
 -6.6915891e-001
 -6.5860851e-001
 -6.3605566e-001
 -6.2927378e-001
 -6.3815352e-001
 -6.4879381e-001
 -6.4945110e-001
 -6.3801525e-001
 -6.3710224e-001
 -6.3016395e-001
 -6.1848136e-001
 -6.1584149e-001
 -6.1128788e-001
 -6.1599443e-001
 -6.0524519e-001
 -5.8737343e-001
 -5.8622133e-001
 -5.7783265e-001
 -5.6456878e-001
 -5.6851412e-001
 -5.8087979e-001
 -5.8186449e-001
 -5.6176041e-001
 -5.5294370e-001
 -5.5708896e-001
 -5.8364495e-001
 -6.0046796e-001
 -5.8994256e-001
 -5.6640719e-001
 -5.6183007e-001
 -5.6837354e-001
 -5.7468617e-001
 -5.9418346e-001
 -6.0536779e-001
 -6.0163959e-001
 -5.8334541e-001
 -5.7272566e-001
 -5.6135664e-001
 -5.7072704e-001
 -5.8030107e-001
 -5.8160484e-001
 -5.6276924e-001
 -5.3643149e-001
 -5.1287976e-001
 -4.9604144e-001
 -4.9207327e-001
 -4.8356504e-001
 -4.5949358e-001
 -4.2524062e-001
 -3.9820548e-001
 -3.9177851e-001
 -4.1339233e-001
 -4.2206823e-001
 -4.2054022e-001
 -4.2252275e-001
 -4.1219873e-001
 -4.0939642e-001
 -4.2902926e-001
 -4.6418458e-001
 -5.0899366e-001
 -5.5794346e-001
 -5.5203560e-001
 -5.4393447e-001
 -5.3702647e-001
 -5.3506193e-001
 -5.5448719e-001
 -5.6085891e-001
 -5.6890492e-001
 -5.6167806e-001
 -5.5051275e-001
 -5.3857178e-001
 -5.4012598e-001
 -5.5454027e-001
 -5.5716139e-001
 -5.4449652e-001
 -5.2432596e-001
 -4.9999425e-001
 -4.8539188e-001
 -4.6772201e-001
 -4.6066130e-001
 -4.3333633e-001
 -2.7660837e-001
  3.9227293e-002
  5.7541638e-001
  1.2234978e+000
  1.6962279e+000
  1.6261692e+000
  8.5008258e-001
 -3.3762221e-001
 -1.2017333e+000
 -1.2013476e+000
 -7.5669698e-001
 -3.9206267e-001
 -2.8739423e-001
 -3.1806487e-001
 -3.7492290e-001
 -3.9984049e-001
 -3.8509328e-001
 -3.6642154e-001
 -3.7088773e-001
 -3.8000871e-001
 -3.7136408e-001
 -3.6273218e-001
 -3.4206626e-001
 -3.4160342e-001
 -3.4479468e-001
 -3.6927144e-001
 -3.6526378e-001
 -3.5295044e-001
 -3.3383575e-001
 -3.3256482e-001
 -3.3045546e-001
 -3.2961233e-001
 -3.4562604e-001
 -3.3216707e-001
 -3.1207776e-001
 -3.0378140e-001
 -3.0164813e-001
 -3.1607595e-001
 -3.1878620e-001
 -3.1547181e-001
 -3.0883039e-001
 -3.0094140e-001
 -2.8915294e-001
 -2.7341794e-001
 -2.7941879e-001
 -2.8182292e-001
 -2.8806586e-001
 -2.7230135e-001
 -2.6187925e-001
 -2.3818830e-001
 -2.3850465e-001
 -2.4596933e-001
 -2.5503885e-001
 -2.5240381e-001
 -2.4000645e-001
 -2.1549651e-001
 -2.1200979e-001
 -2.1472150e-001
 -2.0924196e-001
 -2.1883361e-001
 -2.0253072e-001
 -1.8052508e-001
 -1.6340489e-001
 -1.6709389e-001
 -1.6444758e-001
 -1.6870307e-001
 -1.4908367e-001
 -1.3350824e-001
 -1.1630920e-001
 -1.0790581e-001
 -1.1605847e-001
 -1.1902677e-001
 -1.2468544e-001
 -1.1530861e-001
 -1.0959193e-001
 -1.0756775e-001
 -1.0496056e-001
 -1.2422557e-001
 -1.4115040e-001
 -1.7004680e-001
 -1.7863051e-001
 -1.8629093e-001
 -2.0549143e-001
 -2.3031341e-001
 -2.6588064e-001
 -3.0142207e-001
 -3.2683177e-001
 -3.3748844e-001
 -3.4293186e-001
 -3.5489074e-001
 -3.7778992e-001
 -3.9628022e-001
 -4.2587239e-001
 -4.1812939e-001
 -4.0535228e-001
 -4.0045623e-001
 -3.9054855e-001
 -4.0138685e-001
 -4.1323881e-001
 -4.1474256e-001
 -4.1362602e-001
 -4.0124957e-001
 -3.7353531e-001
 -3.7211890e-001
 -3.7084167e-001
 -3.8000527e-001
 -3.9020058e-001
 -3.6516450e-001
 -3.4670736e-001
 -3.3461666e-001
 -3.2981162e-001
 -3.3513189e-001
 -3.4428128e-001
 -3.3776029e-001
 -3.2530343e-001
 -3.1465153e-001
 -3.1953583e-001
 -3.1811721e-001
 -3.4102601e-001
 -3.6192666e-001
 -3.5823945e-001
 -3.4424849e-001
 -3.4564933e-001
 -3.4529784e-001
 -3.4799666e-001
 -3.7252735e-001
 -3.7654863e-001
 -3.6970717e-001
 -3.6927510e-001
 -3.6409180e-001
 -3.7339562e-001
 -3.7949077e-001
 -3.9611012e-001
 -3.8754432e-001
 -3.8113393e-001
 -3.7660195e-001
 -3.6462346e-001
 -3.7657593e-001
 -3.8172906e-001
 -4.0163302e-001
 -3.9527320e-001
 -3.7366240e-001
 -3.6704545e-001
 -3.5871335e-001
 -3.7469700e-001
 -3.6958439e-001
 -3.4861657e-001
 -3.1337842e-001
 -2.8430234e-001
 -2.7362999e-001
 -2.5726157e-001
 -2.2856242e-001
 -2.2789673e-001
 -2.3188809e-001
 -2.3365178e-001
 -2.3186094e-001
 -2.2204636e-001
 -2.4201282e-001
 -2.6634325e-001
 -2.9163736e-001
 -3.2609028e-001
 -3.4726415e-001
 -3.6416582e-001
 -3.7049061e-001
 -3.8990045e-001
 -4.0033088e-001
 -4.0304160e-001
 -4.0114176e-001
 -3.9393505e-001
 -3.9562124e-001
 -4.1155753e-001
 -4.1722789e-001
 -4.2597693e-001
 -4.2654852e-001
 -4.0703249e-001
 -3.9953550e-001
 -3.8812773e-001
 -3.9293846e-001
 -3.9011849e-001
 -3.8716892e-001
 -3.6682579e-001
 -3.4795925e-001
 -3.3788839e-001
 -3.2781776e-001
 -3.0880616e-001
 -2.5762729e-001
 -7.1664314e-002
  3.3025349e-001
  9.6825910e-001
  1.5998131e+000
  1.7590735e+000
  1.1002819e+000
 -5.7328362e-002
 -1.0349581e+000
 -1.1768709e+000
 -7.5452454e-001
 -3.5861607e-001
 -1.9570777e-001
 -2.1146511e-001
 -2.9182768e-001
 -3.3395185e-001
 -3.1905670e-001
 -2.8985046e-001
 -2.8376038e-001
 -2.8406004e-001
 -3.0085103e-001
 -3.1024082e-001
 -3.0439974e-001
 -2.9023892e-001
 -2.7462076e-001
 -2.8011050e-001
 -2.9412111e-001
 -3.0688514e-001
 -3.0787913e-001
 -2.8660054e-001
 -2.7699341e-001
 -2.7516707e-001
 -2.8477878e-001
 -2.9128198e-001
 -3.0049666e-001
 -2.9292408e-001
 -2.8745291e-001
 -2.8673868e-001
 -2.8365873e-001
 -2.8874463e-001
 -2.9659622e-001
 -3.0456012e-001
 -2.9079444e-001
 -2.7908509e-001
 -2.6700341e-001
 -2.6844514e-001
 -2.8139414e-001
 -2.8669608e-001
 -2.8467001e-001
 -2.7881580e-001
 -2.6141661e-001
 -2.5051707e-001
 -2.6211621e-001
 -2.7643861e-001
 -2.8026837e-001
 -2.7311952e-001
 -2.6318422e-001
 -2.4771584e-001
 -2.3219081e-001
 -2.3545687e-001
 -2.5006005e-001
 -2.4350343e-001
 -2.3100959e-001
 -2.1810579e-001
 -2.0453417e-001
 -2.1494778e-001
 -2.2317229e-001
 -2.1929068e-001
 -2.1048455e-001
 -2.0472608e-001
 -1.9017774e-001
 -1.8204490e-001
 -1.8695035e-001
 -1.9668470e-001
 -2.0291133e-001
 -1.9874184e-001
 -1.8708158e-001
 -1.8199673e-001
 -1.7613951e-001
 -1.7862659e-001
 -1.9227618e-001
 -2.1579461e-001
 -2.1147082e-001
 -2.2258310e-001
 -2.3954883e-001
 -2.5445533e-001
 -3.0246595e-001
 -3.4110957e-001
 -3.6396013e-001
 -3.8025736e-001
 -3.9368809e-001
 -4.0256686e-001
 -4.2411172e-001
 -4.4127460e-001
 -4.5256467e-001
 -4.6199934e-001
 -4.5274885e-001
 -4.5497461e-001
 -4.4756739e-001
 -4.6616497e-001
 -4.7962709e-001
 -4.9062746e-001
 -4.8690799e-001
 -4.6720180e-001
 -4.5456559e-001
 -4.5694260e-001
 -4.6849415e-001
 -4.6722595e-001
 -4.7503401e-001
 -4.5751101e-001
 -4.3946964e-001
 -4.4235516e-001
 -4.4997288e-001
 -4.5141219e-001
 -4.5018553e-001
 -4.4288031e-001
 -4.3297163e-001
 -4.2615092e-001
 -4.3092726e-001
 -4.3882616e-001
 -4.5453527e-001
 -4.5358301e-001
 -4.4861608e-001
 -4.4377493e-001
 -4.4035320e-001
 -4.5111719e-001
 -4.6270946e-001
 -4.6783569e-001
 -4.7209899e-001
 -4.6915290e-001
 -4.7380722e-001
 -4.7136753e-001
 -4.8350752e-001
 -5.0483137e-001
 -5.0832444e-001
 -5.1350946e-001
 -5.0948102e-001
 -4.8324042e-001
 -4.8691204e-001
 -5.0227819e-001
 -5.1659681e-001
 -5.3115959e-001
 -5.0785708e-001
 -4.9650874e-001
 -4.8415091e-001
 -4.8857331e-001
 -4.8057273e-001
 -4.7396693e-001
 -4.5336068e-001
 -4.3434241e-001
 -4.0525301e-001
 -3.8411715e-001
 -3.6477038e-001
 -3.5336759e-001
 -3.5988818e-001
 -3.7189675e-001
 -3.7496064e-001
 -3.6143814e-001
 -3.6316844e-001
 -3.7911218e-001
 -4.0850281e-001
 -4.2979936e-001
 -4.5245733e-001
 -4.7447282e-001
 -4.9855036e-001
 -5.2214224e-001
 -5.3082024e-001
 -5.3600872e-001
 -5.5017611e-001
 -5.5464689e-001
 -5.3963204e-001
 -5.5417032e-001
 -5.5578379e-001
 -5.6260757e-001
 -5.8248827e-001
 -5.8057487e-001
 -5.6238669e-001
 -5.4918693e-001
 -5.5021014e-001
 -5.4203566e-001
 -5.4384618e-001
 -5.3764536e-001
 -5.2303690e-001
 -4.9873635e-001
 -4.7214025e-001
 -4.3444741e-001
 -3.5885566e-001
 -1.2759680e-001
  3.4593571e-001
  1.0099154e+000
  1.5589133e+000
  1.5219404e+000
  6.9747434e-001
 -4.9818060e-001
 -1.3536839e+000
 -1.2907104e+000
 -8.4522301e-001
 -4.7535723e-001
 -3.5828849e-001
 -4.0094636e-001
 -4.7194188e-001
 -5.0843981e-001
 -5.1007432e-001
 -4.7977097e-001
 -4.5262648e-001
 -4.6508773e-001
 -4.7353179e-001
 -4.8463452e-001
 -5.0054865e-001
 -4.9309608e-001
 -4.8311767e-001
 -4.7656850e-001
 -4.7631808e-001
 -4.8341573e-001
 -4.9665196e-001
 -4.8906832e-001
 -4.8137641e-001
 -4.7845449e-001
 -4.6095841e-001
 -4.6097987e-001
 -4.7686141e-001
 -4.8874328e-001
 -4.8400045e-001
 -4.7995455e-001
 -4.6063114e-001
 -4.6813483e-001
 -4.7074085e-001
 -4.8340037e-001
 -4.7728706e-001
 -4.8301990e-001
 -4.7335268e-001
 -4.6115627e-001
 -4.6257765e-001
 -4.6845076e-001
 -4.6421052e-001
 -4.7171773e-001
 -4.5960276e-001
 -4.3838175e-001
 -4.4276162e-001
 -4.4995815e-001
 -4.5445649e-001
 -4.4839823e-001
 -4.3690911e-001
 -4.2866535e-001
 -4.1685401e-001
 -4.0968409e-001
 -4.1990537e-001
 -4.3110250e-001
 -4.3160790e-001
 -4.3346081e-001
 -3.9747058e-001
 -3.9746578e-001
 -3.9182424e-001
 -4.0924618e-001
 -4.1154950e-001
 -4.1804305e-001
 -4.0907539e-001
 -4.0618822e-001
 -3.9759700e-001
 -4.1023513e-001
 -4.0852375e-001
 -4.0798203e-001
 -4.1408660e-001
 -4.0989781e-001
 -4.2200871e-001
 -4.4317502e-001
 -4.7773957e-001
 -5.0804652e-001
 -5.3371167e-001
 -5.4312315e-001
 -5.6590406e-001
 -5.8300268e-001
 -6.0359603e-001
 -6.2138767e-001
 -6.3632272e-001
 -6.4426852e-001
 -6.4661774e-001
 -6.4513245e-001
 -6.3964980e-001
 -6.5584701e-001
 -6.6578727e-001
 -6.7279856e-001
 -6.6420281e-001
 -6.6244976e-001
 -6.4908921e-001
 -6.4857876e-001
 -6.4839361e-001
 -6.5130722e-001
 -6.5835721e-001
 -6.4409038e-001
 -6.3049457e-001
 -6.2689490e-001
 -6.3569492e-001
 -6.3532996e-001
 -6.4325898e-001
 -6.4107962e-001
 -6.3223594e-001
 -6.1909311e-001
 -6.1429364e-001
 -6.3139340e-001
 -6.5299755e-001
 -6.6637951e-001
 -6.4052980e-001
 -6.3654767e-001
 -6.3030914e-001
 -6.3227366e-001
 -6.4633161e-001
 -6.6192382e-001
 -6.7191734e-001
 -6.7793644e-001
 -6.6480291e-001
 -6.6162797e-001
 -6.6426117e-001
 -6.8275707e-001
 -6.8952263e-001
 -6.8766792e-001
 -6.7995414e-001
 -6.7537843e-001
 -6.7929859e-001
 -6.8057347e-001
 -7.1274671e-001
 -7.0477737e-001
 -7.0300460e-001
 -6.9183170e-001
 -6.7807021e-001
 -6.8388612e-001
 -6.9361245e-001
 -7.1659166e-001
 -7.0721773e-001
 -6.8796002e-001
 -6.8846072e-001
 -6.8168759e-001
 -6.9114926e-001
 -6.9797694e-001
 -7.0661488e-001
 -6.9829199e-001
 -6.7979241e-001
 -6.4733514e-001
 -6.3490312e-001
 -6.1752525e-001
 -6.0946434e-001
 -6.0329189e-001
 -5.6721651e-001
 -5.4697919e-001
 -5.3394994e-001
 -5.5980001e-001
 -5.8219070e-001
 -5.7921026e-001
 -5.7926136e-001
 -5.8294659e-001
 -5.6672412e-001
 -5.8992408e-001
 -6.2932728e-001
 -6.8800422e-001
 -7.2059640e-001
 -7.3102918e-001
 -7.2367173e-001
 -7.1714553e-001
 -7.1163511e-001
 -7.1777786e-001
 -7.2995770e-001
 -7.3909691e-001
 -7.4200032e-001
 -7.3264934e-001
 -7.2580957e-001
 -7.3624477e-001
 -7.2904048e-001
 -7.5913234e-001
 -7.5868959e-001
 -7.4118783e-001
 -7.3192229e-001
 -6.9708831e-001
 -6.9151901e-001
 -6.8690964e-001
 -6.7869956e-001
 -6.6107950e-001
 -6.0331074e-001
 -4.6547150e-001
 -1.5559199e-001
  4.1632425e-001
  1.1012326e+000
  1.4509721e+000
  9.6839321e-001
 -1.3114405e-001
 -1.2475835e+000
 -1.5341064e+000
 -1.1357721e+000
 -7.5074498e-001
 -5.7405521e-001
 -5.8123137e-001
 -6.1795705e-001
 -6.4594186e-001
 -6.6092137e-001
 -6.5567256e-001
 -6.5314950e-001
 -6.5986313e-001
 -6.4011016e-001
 -6.2205442e-001
 -6.2572817e-001
 -6.2676833e-001
 -6.3188112e-001
 -6.4575472e-001
 -6.4499449e-001
 -6.3050541e-001
 -6.1849828e-001
 -6.3459957e-001
 -6.4709995e-001
 -6.4305170e-001
 -6.4224652e-001
 -6.2415682e-001
 -6.1349099e-001
 -6.0352058e-001
 -6.1752006e-001
 -6.2286251e-001
 -6.2257933e-001
 -6.3497979e-001
 -6.3008853e-001
 -6.2116916e-001
 -6.0711478e-001
 -6.1222650e-001
 -6.1055868e-001
 -6.2250020e-001
 -6.1915205e-001
 -6.0690143e-001
 -5.9809253e-001
 -5.8973156e-001
 -5.9431195e-001
 -6.0338219e-001
 -5.9539297e-001
 -5.9594712e-001
 -5.8466454e-001
 -5.7407322e-001
 -5.6960916e-001
 -5.6804875e-001
 -5.7495767e-001
 -5.7560893e-001
 -5.5578288e-001
 -5.3427761e-001
 -5.3204627e-001
 -5.3774148e-001
 -5.4724865e-001
 -5.6910431e-001
 -5.6537727e-001
 -5.5182071e-001
 -5.3611260e-001
 -5.3819131e-001
 -5.4701928e-001
 -5.6681286e-001
 -5.6947274e-001
 -5.8265515e-001
 -5.6911580e-001
 -5.4762348e-001
 -5.4021795e-001
 -5.6442735e-001
 -5.8593297e-001
 -5.9584754e-001
 -6.1831236e-001
 -6.5252405e-001
 -6.6092501e-001
 -6.7869203e-001
 -6.9711654e-001
 -7.1717811e-001
 -7.4144217e-001
 -7.3313861e-001
 -7.3842014e-001
 -7.5156564e-001
 -7.6724878e-001
 -7.6828807e-001
 -7.7786948e-001
 -7.6243378e-001
 -7.5815537e-001
 -7.5087630e-001
 -7.5113773e-001
 -7.4992628e-001
 -7.6821787e-001
 -7.7242334e-001
 -7.6662311e-001
 -7.4660570e-001
 -7.2547126e-001
 -7.1952190e-001
 -7.2669438e-001
 -7.3917686e-001
 -7.4413864e-001
 -7.3940159e-001
 -7.1579547e-001
 -6.9784512e-001
 -7.1024956e-001
 -7.2964651e-001
 -7.4131601e-001
 -7.3489948e-001
 -7.3083853e-001
 -7.2405741e-001
 -7.3037524e-001
 -7.4753770e-001
 -7.5439116e-001
 -7.6288985e-001
 -7.4948323e-001
 -7.3937509e-001
 -7.4785445e-001
 -7.6524298e-001
 -7.7158764e-001
 -7.7758610e-001
 -7.8147392e-001
 -7.5380172e-001
 -7.5155766e-001
 -7.6498492e-001
 -7.7909830e-001
 -7.8237672e-001
 -7.8529889e-001
 -7.6898816e-001
 -7.4329590e-001
 -7.2840946e-001
 -7.1722956e-001
 -7.0675170e-001
 -7.0033311e-001
 -6.9195779e-001
 -6.5361236e-001
 -6.0240026e-001
 -6.0377349e-001
 -6.2201605e-001
 -6.3707527e-001
 -6.4365592e-001
 -6.3502124e-001
 -6.2771186e-001
 -6.3281461e-001
 -6.4970698e-001
 -6.9168764e-001
 -7.2567501e-001
 -7.6157381e-001
 -7.8014349e-001
 -7.7628019e-001
 -7.7271095e-001
 -7.7207636e-001
 -7.8799987e-001
 -7.9550045e-001
 -8.0351661e-001
 -7.9853689e-001
 -7.9817816e-001
 -8.0280488e-001
 -8.1069077e-001
 -8.1953730e-001
 -8.1191733e-001
 -8.1454602e-001
 -8.0663878e-001
 -7.8163102e-001
 -7.6894196e-001
 -7.7308399e-001
 -7.6811276e-001
 -7.6983887e-001
 -7.5231580e-001
 -7.1836054e-001
 -6.9761793e-001
 -6.1271624e-001
 -4.4021665e-001
 -1.0236387e-001
  4.8729687e-001
  1.1553642e+000
  1.5112619e+000
  1.1573420e+000
  1.4924832e-001
 -1.0272305e+000
 -1.6202088e+000
 -1.3711866e+000
 -9.3194296e-001
 -6.6557250e-001
 -6.1906366e-001
 -6.7009217e-001
 -7.1310607e-001
 -7.1521107e-001
 -7.0758910e-001
 -7.0192593e-001
 -6.8342502e-001
 -6.9060042e-001
 -6.9537334e-001
 -7.0777710e-001
 -7.0027196e-001
 -6.8906769e-001
 -6.8203340e-001
 -6.7112056e-001
 -6.8026634e-001
 -6.8433875e-001
 -6.8489706e-001
 -6.8290560e-001
 -6.7830779e-001
 -6.6114064e-001
 -6.6031451e-001
 -6.6684428e-001
 -6.8115942e-001
 -6.7971898e-001
 -6.6846047e-001
 -6.5804119e-001
 -6.5149774e-001
 -6.5442846e-001
 -6.5529538e-001
 -6.6170099e-001
 -6.6626474e-001
 -6.5338922e-001
 -6.5713671e-001
 -6.4670084e-001
 -6.5057458e-001
 -6.5664473e-001
 -6.7679202e-001
 -6.6480589e-001
 -6.4911248e-001
 -6.2823787e-001
 -6.1722515e-001
 -6.2055648e-001
 -6.2522417e-001
 -6.4273850e-001
 -6.2740090e-001
 -6.2224592e-001
 -5.8798119e-001
 -5.8410493e-001
 -5.9174791e-001
 -5.9466225e-001
 -5.8382957e-001
 -5.6742010e-001
 -5.5735021e-001
 -5.3870891e-001
 -5.5506512e-001
 -5.6676276e-001
 -5.6464302e-001
 -5.5682584e-001
 -5.4206731e-001
 -5.3009351e-001
 -5.3033438e-001
 -5.5019299e-001
 -5.5301077e-001
 -5.5327396e-001
 -5.5027710e-001
 -5.5027086e-001
 -5.3338064e-001
 -5.4583855e-001
 -5.7741855e-001
 -6.0018358e-001
 -6.3323612e-001
 -6.5853543e-001
 -6.6943638e-001
 -6.8926953e-001
 -7.1204616e-001
 -7.4942462e-001
 -7.7839806e-001
 -7.9757415e-001
 -7.9618426e-001
 -7.9243800e-001
 -7.9814724e-001
 -8.0701068e-001
 -8.2298476e-001
 -8.4293997e-001
 -8.3420739e-001
 -8.1875450e-001
 -8.0811632e-001
 -8.0676105e-001
 -8.1061282e-001
 -8.2630415e-001
 -8.2294042e-001
 -8.1748946e-001
 -8.0404290e-001
 -7.7853914e-001
 -7.9051838e-001
 -7.9715495e-001
 -7.9656911e-001
 -7.8597348e-001
 -7.8115468e-001
 -7.6246470e-001
 -7.5704026e-001
 -7.6797389e-001
 -7.8673743e-001
 -7.8926492e-001
 -7.6921869e-001
 -7.5964972e-001
 -7.4732145e-001
 -7.5455770e-001
 -7.6690680e-001
 -7.7170297e-001
 -7.8704109e-001
 -7.8203060e-001
 -7.6468384e-001
 -7.7179232e-001
 -7.8987793e-001
 -7.9760047e-001
 -7.8579728e-001
 -7.8882997e-001
 -7.9569990e-001
 -7.8549092e-001
 -7.8383576e-001
 -7.9472381e-001
 -8.0860275e-001
 -8.1339078e-001
 -8.1484853e-001
 -7.9569381e-001
 -7.8442653e-001
 -7.9007887e-001
 -7.9749240e-001
 -8.1918229e-001
 -8.1477111e-001
 -8.0073853e-001
 -7.8207607e-001
 -7.6005354e-001
 -7.4183051e-001
 -7.3174738e-001
 -7.3564719e-001
 -7.1558917e-001
 -6.9348779e-001
 -6.6233511e-001
 -6.4381212e-001
 -6.5167847e-001
 -6.7265236e-001
 -6.7770224e-001
 -6.6447213e-001
 -6.6324274e-001
 -6.5925763e-001
 -6.8270023e-001
 -7.1567660e-001
 -7.5806145e-001
 -7.9387986e-001
 -8.0274790e-001
 -8.0193119e-001
 -7.9571523e-001
 -7.9481094e-001
 -8.0797468e-001
 -8.2058249e-001
 -8.2422417e-001
 -8.2837293e-001
 -8.2168857e-001
 -8.1447619e-001
 -8.2242512e-001
 -8.3440931e-001
 -8.4389501e-001
 -8.4021961e-001
 -8.2715570e-001
 -7.9751965e-001
 -7.8654971e-001
 -7.9358541e-001
 -7.8447250e-001
 -7.6783088e-001
 -7.4919900e-001
 -7.0924769e-001
 -5.7511398e-001
 -2.6839454e-001
  2.5613750e-001
  9.4491472e-001
  1.4665321e+000
  1.3405707e+000
  4.1950778e-001
 -7.7689949e-001
 -1.5679148e+000
 -1.4182350e+000
 -9.5313030e-001
 -6.4196114e-001
 -5.7580672e-001
 -6.3974362e-001
 -7.2301958e-001
 -7.4661634e-001
 -7.3857928e-001
 -7.3147640e-001
 -7.0534443e-001
 -7.0227663e-001
 -6.9460911e-001
 -7.0720935e-001
 -7.0967225e-001
 -7.2159769e-001
 -7.1837264e-001
 -7.0258449e-001
 -6.8587959e-001
 -6.7166109e-001
 -6.7863175e-001
 -6.8614465e-001
 -6.9775860e-001
 -6.8910191e-001
 -6.8248831e-001
 -6.7057100e-001
 -6.6961416e-001
 -6.7180610e-001
 -6.8718908e-001
 -7.0277912e-001
 -6.8726246e-001
 -6.7718281e-001
 -6.7104566e-001
 -6.6850703e-001
 -6.7334945e-001
 -6.8873150e-001
 -6.8292507e-001
 -6.8514027e-001
 -6.6396544e-001
 -6.5092422e-001
 -6.4763172e-001
 -6.5109520e-001
 -6.5611001e-001
 -6.4943986e-001
 -6.4792820e-001
 -6.1113506e-001
 -6.0779702e-001
 -6.2426722e-001
 -6.2789455e-001
 -6.2287282e-001
 -5.9609894e-001
 -5.8173304e-001
 -5.6607186e-001
 -5.6063778e-001
 -5.6349044e-001
 -5.6939592e-001
 -5.6462067e-001
 -5.4353878e-001
 -5.2854378e-001
 -5.2615567e-001
 -5.2035016e-001
 -5.3893110e-001
 -5.4763991e-001
 -5.3970782e-001
 -5.2774649e-001
 -5.1854817e-001
 -5.2012128e-001
 -5.2919175e-001
 -5.4599308e-001
 -5.7427773e-001
 -5.8593441e-001
 -5.9578693e-001
 -6.1200239e-001
 -6.4857913e-001
 -6.8455404e-001
 -7.1519335e-001
 -7.4136701e-001
 -7.5240263e-001
 -7.4289102e-001
 -7.6926002e-001
 -8.0012144e-001
 -8.1386891e-001
 -8.2556378e-001
 -8.2579698e-001
 -8.2303917e-001
 -8.1171890e-001
 -8.0851753e-001
 -8.1330086e-001
 -8.2238933e-001
 -8.2270417e-001
 -8.1712701e-001
 -8.0359975e-001
 -7.8392545e-001
 -7.9323368e-001
 -7.9419477e-001
 -7.9916004e-001
 -7.8800043e-001
 -8.0002696e-001
 -7.7957912e-001
 -7.5777464e-001
 -7.6576419e-001
 -7.7643697e-001
 -7.7434852e-001
 -7.6418567e-001
 -7.5111933e-001
 -7.3971182e-001
 -7.5058209e-001
 -7.6320050e-001
 -7.7392367e-001
 -7.7232042e-001
 -7.7017072e-001
 -7.6133600e-001
 -7.6143142e-001
 -7.5907679e-001
 -7.7428619e-001
 -7.9235568e-001
 -7.9474688e-001
 -7.8947390e-001
 -7.8113571e-001
 -7.8463166e-001
 -7.8499277e-001
 -8.0411667e-001
 -8.2010340e-001
 -8.0980886e-001
 -8.0924554e-001
 -7.8377220e-001
 -7.9157259e-001
 -8.1819810e-001
 -8.1941484e-001
 -8.2103272e-001
 -8.1162781e-001
 -8.0953237e-001
 -8.0039001e-001
 -8.0621856e-001
 -8.1632199e-001
 -8.2378616e-001
 -8.1539934e-001
 -8.1149222e-001
 -7.9721390e-001
 -7.7526274e-001
 -7.7404784e-001
 -7.6303457e-001
 -7.5235204e-001
 -7.3505874e-001
 -6.9765090e-001
 -6.7813512e-001
 -6.5056676e-001
 -6.3934556e-001
 -6.7128505e-001
 -6.8880789e-001
 -6.7859826e-001
 -6.6202539e-001
 -6.5384488e-001
 -6.6106734e-001
 -6.8709154e-001
 -7.1976672e-001
 -7.5480053e-001
 -7.8477870e-001
 -7.9747817e-001
 -7.9104927e-001
 -7.9301678e-001
 -8.0638285e-001
 -8.1972014e-001
 -8.2381603e-001
 -8.2011799e-001
 -8.1127804e-001
 -8.1732178e-001
 -8.2663594e-001
 -8.2565161e-001
 -8.2657118e-001
 -8.1680457e-001
 -7.9759384e-001
 -7.8244291e-001
 -7.8480917e-001
 -7.8221089e-001
 -7.9151770e-001
 -7.6623020e-001
 -7.3963306e-001
 -7.1228241e-001
 -5.9894519e-001
 -3.4967281e-001
  1.1672409e-001
  8.2182267e-001
  1.4172005e+000
  1.3504741e+000
  4.7801701e-001
 -7.1941434e-001
 -1.5475171e+000
 -1.4758402e+000
 -1.0516957e+000
 -7.0549962e-001
 -5.9365893e-001
 -6.2552402e-001
 -6.9601379e-001
 -7.2960654e-001
 -7.2726856e-001
 -7.0757252e-001
 -6.9035648e-001
 -6.8345026e-001
 -6.7595020e-001
 -6.9438584e-001
 -6.9577615e-001
 -6.9714367e-001
 -6.9643792e-001
 -6.8021695e-001
 -6.6344876e-001
 -6.7410333e-001
 -6.8011285e-001
 -6.8098154e-001
 -6.8699074e-001
 -6.8799980e-001
 -6.6924458e-001
 -6.5854336e-001
 -6.6321115e-001
 -6.8121754e-001
 -6.8226916e-001
 -6.8226771e-001
 -6.7363939e-001
 -6.5954984e-001
 -6.5755976e-001
 -6.7350121e-001
 -6.8586168e-001
 -7.0360629e-001
 -6.8828610e-001
 -6.7508606e-001
 -6.4817618e-001
 -6.4435751e-001
 -6.4462395e-001
 -6.4735914e-001
 -6.5160124e-001
 -6.3658388e-001
 -6.2732898e-001
 -6.1236519e-001
 -6.1102031e-001
 -6.1218382e-001
 -6.2455818e-001
 -6.0915660e-001
 -5.9449435e-001
 -5.7303277e-001
 -5.7693199e-001
 -5.7482905e-001
 -5.7289493e-001
 -5.7775233e-001
 -5.7146537e-001
 -5.6829975e-001
 -5.5043700e-001
 -5.5482031e-001
 -5.6244756e-001
 -5.6680271e-001
 -5.8120465e-001
 -5.7153318e-001
 -5.5300331e-001
 -5.4112543e-001
 -5.4586419e-001
 -5.5515129e-001
 -5.7017089e-001
 -5.8353829e-001
 -6.0152513e-001
 -6.0360261e-001
 -6.3024281e-001
 -6.7144887e-001
 -7.0401694e-001
 -7.3518788e-001
 -7.5029604e-001
 -7.5535175e-001
 -7.5545830e-001
 -7.5819011e-001
 -7.6826188e-001
 -7.9213149e-001
 -8.0346274e-001
 -8.0474969e-001
 -7.9443359e-001
 -7.7407467e-001
 -7.8008583e-001
 -7.9545302e-001
 -8.1381879e-001
 -8.0373955e-001
 -7.8941364e-001
 -7.6815078e-001
 -7.6632912e-001
 -7.6618523e-001
 -7.7600195e-001
 -7.8769788e-001
 -7.7018754e-001
 -7.5656454e-001
 -7.3690565e-001
 -7.3149136e-001
 -7.4159160e-001
 -7.4396467e-001
 -7.5473182e-001
 -7.4961655e-001
 -7.4476603e-001
 -7.3090272e-001
 -7.3214057e-001
 -7.5413470e-001
 -7.6691160e-001
 -7.7871935e-001
 -7.6479983e-001
 -7.5966705e-001
 -7.5134611e-001
 -7.5529812e-001
 -7.7085107e-001
 -7.8203936e-001
 -7.8130270e-001
 -7.6797295e-001
 -7.7038815e-001
 -7.6772492e-001
 -7.6971258e-001
 -7.8033591e-001
 -7.9276231e-001
 -7.9674102e-001
 -7.8090011e-001
 -7.6705543e-001
 -7.7543732e-001
 -7.8207944e-001
 -8.0700732e-001
 -8.1214189e-001
 -8.0294443e-001
 -7.8097223e-001
 -7.8480165e-001
 -7.9667145e-001
 -8.0208374e-001
 -8.0522294e-001
 -7.9185835e-001
 -7.6209347e-001
 -7.1378922e-001
 -7.0417284e-001
 -6.9669600e-001
 -6.8878260e-001
 -6.7213207e-001
 -6.3998792e-001
 -6.3208545e-001
 -6.3918466e-001
 -6.4193188e-001
 -6.3851047e-001
 -6.4657844e-001
 -6.6464655e-001
 -6.7807804e-001
 -6.9479436e-001
 -7.2487276e-001
 -7.5910117e-001
 -7.8458426e-001
 -8.0200669e-001
 -8.0041386e-001
 -7.9846526e-001
 -7.8620447e-001
 -7.7448683e-001
 -7.9052611e-001
 -8.0866917e-001
 -8.1631794e-001
 -8.0698484e-001
 -8.1029950e-001
 -7.9958058e-001
 -7.9328400e-001
 -7.9862601e-001
 -8.0400935e-001
 -8.1075235e-001
 -7.7970452e-001
 -7.4208343e-001
 -7.3368304e-001
 -7.2383619e-001
 -7.1535284e-001
 -6.5845554e-001
 -4.7086907e-001
 -6.2471254e-002
  5.9886282e-001
  1.2700899e+000
  1.4931333e+000
  8.9101073e-001
 -2.4202461e-001
 -1.3253838e+000
 -1.6126389e+000
 -1.2288624e+000
 -8.3337313e-001
 -6.5191325e-001
 -6.4667639e-001
 -6.8993093e-001
 -7.1001423e-001
 -6.9385296e-001
 -6.9545806e-001
 -6.8977885e-001
 -6.9633875e-001
 -7.0508064e-001
 -7.0359521e-001
 -6.9145587e-001
 -6.8175524e-001
 -6.7081793e-001
 -6.7855097e-001
 -6.8814054e-001
 -6.9216398e-001
 -6.8359034e-001
 -6.7712845e-001
 -6.7178293e-001
 -6.7462590e-001
 -6.7446880e-001
 -6.7976586e-001
 -6.7773198e-001
 -6.7534789e-001
 -6.7879784e-001
 -6.5452567e-001
 -6.5471069e-001
 -6.6782384e-001
 -6.7930764e-001
 -6.8142555e-001
 -6.7155320e-001
 -6.4833150e-001
 -6.3594569e-001
 -6.5194785e-001
 -6.6533824e-001
 -6.6568639e-001
 -6.4388652e-001
 -6.2687018e-001
 -6.1907354e-001
 -6.1531132e-001
 -6.3333587e-001
 -6.4006376e-001
 -6.4145136e-001
 -6.3365604e-001
 -6.1293190e-001
 -5.9599025e-001
 -5.9496592e-001
 -6.1363432e-001
 -6.1197281e-001
 -6.0556683e-001
 -5.8547582e-001
 -5.7429800e-001
 -5.6274924e-001
 -5.7759131e-001
 -5.7846778e-001
 -5.8000351e-001
 -5.7750067e-001
 -5.5607072e-001
 -5.5145158e-001
 -5.3863634e-001
 -5.4183210e-001
 -5.6242720e-001
 -5.6933404e-001
 -5.5915090e-001
 -5.5556286e-001
 -5.4501949e-001
 -5.3894148e-001
 -5.4920419e-001
 -5.5154841e-001
 -5.6630836e-001
 -5.9868105e-001
 -6.0630308e-001
 -6.2398833e-001
 -6.4573298e-001
 -6.8068512e-001
 -7.0090735e-001
 -7.1225200e-001
 -7.1607156e-001
 -7.2963334e-001
 -7.3216750e-001
 -7.7184560e-001
 -7.8891297e-001
 -7.8917603e-001
 -7.7374291e-001
 -7.5638253e-001
 -7.5158747e-001
 -7.5780844e-001
 -7.5840056e-001
 -7.6953305e-001
 -7.6368790e-001
 -7.5168375e-001
 -7.3677645e-001
 -7.2754588e-001
 -7.3424826e-001
 -7.3734537e-001
 -7.5050394e-001
 -7.4884294e-001
 -7.3207079e-001
 -7.1649270e-001
 -7.1086519e-001
 -7.0921513e-001
 -7.1598889e-001
 -7.3470205e-001
 -7.3051445e-001
 -7.1227314e-001
 -7.1412905e-001
 -7.2244560e-001
 -7.3105757e-001
 -7.4927143e-001
 -7.4617798e-001
 -7.5008103e-001
 -7.4134842e-001
 -7.4279357e-001
 -7.5793494e-001
 -7.5708997e-001
 -7.7838487e-001
 -7.6798206e-001
 -7.5706137e-001
 -7.4176273e-001
 -7.4512653e-001
 -7.5580649e-001
 -7.8378515e-001
 -7.7308288e-001
 -7.5888658e-001
 -7.4096744e-001
 -7.0462423e-001
 -6.9531652e-001
 -6.8501153e-001
 -6.7238749e-001
 -6.6641933e-001
 -6.2913424e-001
 -6.0018267e-001
 -5.8648300e-001
 -6.0474875e-001
 -6.3122565e-001
 -6.2762633e-001
 -6.1427453e-001
 -6.1162825e-001
 -6.2227079e-001
 -6.3953954e-001
 -6.8444565e-001
 -7.3557610e-001
 -7.6748656e-001
 -7.6719639e-001
 -7.5800938e-001
 -7.3153696e-001
 -7.3873105e-001
 -7.4274678e-001
 -7.6966777e-001
 -7.7573647e-001
 -7.7052741e-001
 -7.4780038e-001
 -7.3360393e-001
 -7.5101428e-001
 -7.5430742e-001
 -7.5944582e-001
 -7.3876056e-001
 -7.0811351e-001
 -6.9247449e-001
 -6.7429808e-001
 -6.6785435e-001
 -6.6634097e-001
 -6.4703425e-001
 -5.6387726e-001
 -3.7036338e-001
  1.3069758e-002
  6.4470173e-001
  1.3163365e+000
  1.5719225e+000
  9.8012413e-001
 -1.5776497e-001
 -1.2396585e+000
 -1.4812795e+000
 -1.0671055e+000
 -6.8643661e-001
 -5.2937614e-001
 -5.4723901e-001
 -5.9539997e-001
 -6.1581373e-001
 -6.1269817e-001
 -6.0151274e-001
 -6.0078604e-001
 -6.2618215e-001
 -6.0941058e-001
 -5.9942218e-001
 -5.7815339e-001
 -5.7012163e-001
 -5.8711888e-001
 -5.8874078e-001
 -5.9833124e-001
 -5.9416603e-001
 -5.7001623e-001
 -5.4773353e-001
 -5.5689505e-001
 -5.6659359e-001
 -5.6894685e-001
 -5.5696867e-001
 -5.4391745e-001
 -5.3529610e-001
 -5.2908514e-001
 -5.4387347e-001
 -5.4705026e-001
 -5.4880271e-001
 -5.3988026e-001
 -5.2888432e-001
 -5.1152323e-001
 -5.1607275e-001
 -5.1631683e-001
 -5.2484139e-001
 -5.1810482e-001
 -5.1225466e-001
 -5.0803474e-001
 -4.6980488e-001
 -4.7944338e-001
 -4.9567866e-001
 -4.8586401e-001
 -4.7356027e-001
 -4.5837833e-001
 -4.5509630e-001
 -4.4798738e-001
 -4.3770301e-001
 -4.3834387e-001
 -4.4776153e-001
 -4.2338965e-001
 -4.1118532e-001
 -3.9397913e-001
 -3.8610335e-001
 -3.8192625e-001
 -3.7868016e-001
 -3.7047234e-001
 -3.6357877e-001
 -3.6030501e-001
 -3.4883111e-001
 -3.5159756e-001
 -3.5461441e-001
 -3.6104187e-001
 -3.5093685e-001
 -3.4379946e-001
 -3.2251768e-001
 -3.2619169e-001
 -3.4513499e-001
 -3.5043323e-001
 -3.6710562e-001
 -3.8553508e-001
 -3.9243781e-001
 -3.9750995e-001
 -4.2077256e-001
 -4.5056057e-001
 -4.8300765e-001
 -5.1137569e-001
 -5.2519289e-001
 -5.3798989e-001
 -5.4274842e-001
 -5.6189661e-001
 -5.8347449e-001
 -6.0019117e-001
 -6.0588074e-001
 -5.9337375e-001
 -5.7207956e-001
 -5.8206759e-001
 -5.8823993e-001
 -5.8935090e-001
 -5.9883162e-001
 -5.9541578e-001
 -5.8701753e-001
 -5.6820210e-001
 -5.6850193e-001
 -5.7320297e-001
 -5.6197538e-001
 -5.6196386e-001
 -5.4475924e-001
 -5.1874964e-001
 -5.1814488e-001
 -5.2007403e-001
 -5.2030372e-001
 -5.3538467e-001
 -5.2660637e-001
 -5.0693169e-001
 -4.8930734e-001
 -5.0190564e-001
 -5.0934664e-001
 -5.1895862e-001
 -5.2313402e-001
 -5.2110800e-001
 -5.3060331e-001
 -5.0911798e-001
 -4.9308862e-001
 -5.1237207e-001
 -5.2584879e-001
 -5.3428527e-001
 -5.2851501e-001
 -5.1627251e-001
 -5.1509603e-001
 -5.1453581e-001
 -5.2781935e-001
 -5.3145491e-001
 -5.3307371e-001
 -5.0888153e-001
 -4.9629091e-001
 -4.7463716e-001
 -4.6467085e-001
 -4.6261298e-001
 -4.5016233e-001
 -4.2412807e-001
 -3.9183391e-001
 -3.6337853e-001
 -3.5399972e-001
 -3.6857865e-001
 -3.9301950e-001
 -3.9593653e-001
 -3.8387381e-001
 -3.7140016e-001
 -3.7731554e-001
 -4.1171690e-001
 -4.5023025e-001
 -4.9709420e-001
 -5.2109360e-001
 -5.3126976e-001
 -5.1491972e-001
 -5.1758380e-001
 -5.4425916e-001
 -5.4797820e-001
 -5.6760919e-001
 -5.5370890e-001
 -5.4129109e-001
 -5.1864955e-001
 -5.2534930e-001
 -5.4825941e-001
 -5.6002520e-001
 -5.4875834e-001
 -5.4082183e-001
 -5.1687905e-001
 -4.9558554e-001
 -4.9657267e-001
 -4.9326926e-001
 -4.7951795e-001
 -4.6441150e-001
 -4.4025298e-001
 -3.6185409e-001
 -2.2222654e-001
  2.4923513e-002
  4.0674243e-001
  9.6096985e-001
  1.5308089e+000
  1.7753713e+000
  1.3413067e+000
  2.7928884e-001
 -8.6737450e-001
 -1.3405140e+000
 -1.0190504e+000
 -5.5437700e-001
 -3.0329300e-001
 -2.8193445e-001
 -3.5915496e-001
 -4.2512731e-001
 -4.4798807e-001
 -4.2217859e-001
 -4.0093350e-001
 -3.9702965e-001
 -3.9198048e-001
 -3.9933039e-001
 -4.1096237e-001
 -4.0714666e-001
 -4.0670851e-001
 -4.0271955e-001
 -3.9379721e-001
 -3.8699555e-001
 -3.8854846e-001
 -3.9407825e-001
 -3.9212795e-001
 -3.8818819e-001
 -3.8649756e-001
 -3.7277819e-001
 -3.8503242e-001
 -3.8804003e-001
 -3.8492337e-001
 -3.8430047e-001
 -3.7302891e-001
 -3.5891703e-001
 -3.5200375e-001
 -3.5634389e-001
 -3.7492869e-001
 -3.7435310e-001
 -3.7715759e-001
 -3.5509208e-001
 -3.3983940e-001
 -3.4252490e-001
 -3.4869852e-001
 -3.5566994e-001
 -3.6627475e-001
 -3.5118872e-001
 -3.2973420e-001
 -3.1332754e-001
 -3.2018500e-001
 -3.1862881e-001
 -3.1102972e-001
 -3.0994480e-001
 -2.8662207e-001
 -2.6951111e-001
 -2.5554688e-001
 -2.6631486e-001
 -2.6660907e-001
 -2.6540132e-001
 -2.5516981e-001
 -2.3495850e-001
 -2.2977755e-001
 -2.2421529e-001
 -2.1640787e-001
 -2.2873837e-001
 -2.2221613e-001
 -2.1458991e-001
 -1.9567505e-001
 -2.0355588e-001
 -2.0187564e-001
 -2.0197504e-001
 -2.1101117e-001
 -2.1612077e-001
 -2.2351865e-001
 -2.1406031e-001
 -2.3347664e-001
 -2.5649761e-001
 -3.1002555e-001
 -3.2954865e-001
 -3.5465990e-001
 -3.6661489e-001
 -3.9396344e-001
 -4.2138987e-001
 -4.4947700e-001
 -4.7263477e-001
 -4.9566262e-001
 -5.0885183e-001
 -4.9804111e-001
 -5.0949959e-001
 -5.2625702e-001
 -5.2930901e-001
 -5.3756423e-001
 -5.3843548e-001
 -5.2390553e-001
 -5.1759878e-001
 -5.0802073e-001
 -5.0809622e-001
 -5.2476978e-001
 -5.1781332e-001
 -5.0358184e-001
 -4.9669932e-001
 -4.7663405e-001
 -4.7113837e-001
 -4.8345394e-001
 -4.7755844e-001
 -4.8803868e-001
 -4.7400348e-001
 -4.5579090e-001
 -4.4694312e-001
 -4.5153562e-001
 -4.8058279e-001
 -4.8221002e-001
 -4.8179946e-001
 -4.7973171e-001
 -4.7234478e-001
