 -1.6729161e-001
 -2.2802200e-001
 -2.0830234e-001
 -2.1882952e-001
 -2.1195370e-001
 -2.0094797e-001
 -1.9137605e-001
 -2.0179378e-001
 -1.6866852e-001
 -1.5740993e-001
 -1.6612196e-001
 -1.6288588e-001
 -1.6180801e-001
 -1.7273303e-001
 -1.7559388e-001
 -1.5777869e-001
 -1.5763885e-001
 -2.2022569e-001
 -2.5928692e-001
 -2.5258750e-001
 -2.6897731e-001
 -1.7216377e-001
  4.6805895e-002
  2.6873404e-001
  3.5410495e-001
  4.1172306e-001
  5.6481437e-001
  7.6963007e-001
  8.0258233e-001
  7.0205120e-001
  5.7958739e-001
  3.9568879e-001
  1.0138257e-001
 -2.0315722e-001
 -3.2238421e-001
 -3.5927810e-001
 -4.0375392e-001
 -4.9409253e-001
 -4.7604473e-001
 -3.8798055e-001
 -3.4657067e-001
 -2.4296104e-001
 -1.6275084e-001
 -1.7529395e-001
 -2.4449999e-001
 -2.7254015e-001
 -2.7390812e-001
 -2.7387863e-001
 -2.6324392e-001
 -2.6514860e-001
 -2.8348318e-001
 -2.8472578e-001
 -2.8057148e-001
 -2.8900627e-001
 -2.9392442e-001
 -2.8538065e-001
 -2.8553703e-001
 -2.9580325e-001
 -2.7088717e-001
 -2.6126772e-001
 -2.7858602e-001
 -2.7221853e-001
 -2.6075631e-001
 -2.7524499e-001
 -2.8160208e-001
 -2.5178676e-001
 -2.5449440e-001
 -2.5439777e-001
 -2.3761903e-001
 -2.2496272e-001
 -2.3596980e-001
 -2.1502075e-001
 -1.8695577e-001
 -2.1069240e-001
 -2.1022645e-001
 -1.8805335e-001
 -1.7596684e-001
 -1.7654600e-001
 -1.6502742e-001
 -1.3927458e-001
 -1.3612748e-001
 -1.3256714e-001
 -9.5720616e-002
 -9.1136112e-002
 -9.4011033e-002
 -6.4689603e-002
 -7.7118558e-002
 -7.4747213e-002
 -4.5466617e-002
 -3.4039024e-002
 -3.4139452e-002
 -2.4725232e-002
 -3.6343966e-003
 -7.9648645e-004
  1.4665657e-002
  4.8960833e-002
  5.0906966e-002
  3.8728598e-002
  5.0507790e-002
  7.2727071e-002
  6.7746783e-002
  7.1808848e-002
  9.0937511e-002
  9.2735177e-002
  8.1879911e-002
  1.0867876e-001
  1.2726531e-001
  1.1608181e-001
  1.3545200e-001
  1.4953318e-001
  1.1554238e-001
  1.2097287e-001
  1.4389680e-001
  1.3354675e-001
  1.2397424e-001
  1.3731541e-001
  1.3640513e-001
  1.3377853e-001
  1.4933457e-001
  1.3693174e-001
  1.1491254e-001
  1.2361031e-001
  1.1952430e-001
  1.0723937e-001
  9.2528990e-002
  1.0902531e-001
  9.3372176e-002
  7.4235150e-002
  9.6918786e-002
  1.0670211e-001
  8.7219244e-002
  9.8490001e-002
  9.6229354e-002
  7.5371236e-002
  6.2967384e-002
  8.5433313e-002
  9.2131070e-002
  7.7041943e-002
  9.3419323e-002
  1.1246620e-001
  1.0683198e-001
  1.1728769e-001
  1.3903814e-001
  1.3207931e-001
  1.2532747e-001
  1.4043447e-001
  1.4660373e-001
  1.4473835e-001
  1.6181578e-001
  1.7244733e-001
  1.6758771e-001
  1.7271709e-001
  1.9347676e-001
  1.8573721e-001
  1.9011275e-001
  2.2124102e-001
  2.0826935e-001
  1.8038065e-001
  1.8688539e-001
  1.9104666e-001
  1.9515449e-001
  2.5665465e-001
  3.7296542e-001
  4.0536550e-001
  4.0327271e-001
  4.2304476e-001
  3.6723326e-001
  2.3573236e-001
  7.0923887e-002
 -9.9528430e-002
 -3.3070162e-001
 -5.6102949e-001
 -7.5517311e-001
 -8.9627051e-001
 -9.7761128e-001
 -9.6741827e-001
 -8.8316803e-001
 -7.4684103e-001
 -5.5620274e-001
 -4.3913213e-001
 -4.7465946e-001
 -5.6057711e-001
 -6.7384645e-001
 -8.3744155e-001
 -9.4209489e-001
 -9.7121729e-001
 -9.7479456e-001
 -9.9285063e-001
 -9.8811440e-001
 -9.9218558e-001
 -1.0017175e+000
 -1.0021502e+000
 -9.9307130e-001
 -1.0105359e+000
 -1.0277813e+000
 -1.0143651e+000
 -1.0180942e+000
 -1.0301712e+000
 -1.0143574e+000
 -1.0073473e+000
 -1.0231974e+000
 -1.0158468e+000
 -9.8061874e-001
 -9.9775562e-001
 -9.9836068e-001
 -9.9332007e-001
 -1.0070767e+000
 -9.9769101e-001
 -9.7678679e-001
 -9.5900943e-001
 -9.7155252e-001
 -9.4502872e-001
 -9.0884287e-001
 -9.2397905e-001
 -9.3829476e-001
 -8.9486246e-001
 -8.9972082e-001
 -8.7941936e-001
 -8.3428594e-001
 -8.0803069e-001
 -8.1644524e-001
 -8.0306445e-001
 -7.9405621e-001
 -7.9515208e-001
 -7.6938664e-001
 -7.3568074e-001
 -7.2258997e-001
 -7.1980470e-001
 -7.0104747e-001
 -6.9773527e-001
 -7.1272801e-001
 -6.8729498e-001
 -6.5200948e-001
 -6.5262048e-001
 -6.4277355e-001
 -6.1029834e-001
 -6.0135963e-001
 -6.0385735e-001
 -5.5969618e-001
 -5.4586722e-001
 -5.5408312e-001
 -5.2414950e-001
 -4.9922267e-001
 -5.0393077e-001
 -4.8757148e-001
 -4.5518932e-001
 -4.4930979e-001
 -4.5581297e-001
 -4.2664326e-001
 -4.0316720e-001
 -4.0669989e-001
 -4.0691263e-001
 -3.8155055e-001
 -3.7871621e-001
 -3.8505281e-001
 -3.6110048e-001
 -3.3875510e-001
 -3.4177043e-001
 -3.1421256e-001
 -3.0149279e-001
 -3.0283524e-001
 -2.8386525e-001
 -2.5687393e-001
 -2.6716722e-001
 -2.7841778e-001
 -2.4734238e-001
 -2.6705489e-001
 -2.6986448e-001
 -2.3903595e-001
 -2.2978460e-001
 -2.4368510e-001
 -2.2592100e-001
 -1.9854776e-001
 -2.1262319e-001
 -2.2536734e-001
 -1.9672280e-001
 -1.9745479e-001
 -2.1944183e-001
 -2.1137223e-001
 -1.9870907e-001
 -2.1372694e-001
 -2.0656170e-001
 -1.8422704e-001
 -1.9136169e-001
 -1.8758716e-001
 -1.6441584e-001
 -1.7171330e-001
 -1.8757439e-001
 -1.8244093e-001
 -1.7030957e-001
 -1.9208091e-001
 -1.8407612e-001
 -1.7040616e-001
 -1.8118644e-001
 -1.9058914e-001
 -1.6361697e-001
 -1.5465638e-001
 -1.7381135e-001
 -1.6547141e-001
 -1.6366611e-001
 -1.8992279e-001
 -1.8966869e-001
 -1.6927708e-001
 -1.8539395e-001
 -1.7673105e-001
 -1.5370179e-001
 -1.6061217e-001
 -1.6064989e-001
 -1.4636509e-001
 -1.3497642e-001
 -1.6383706e-001
 -1.6819293e-001
 -1.5693247e-001
 -1.5850604e-001
 -1.6645586e-001
 -1.4349974e-001
 -1.4541564e-001
 -1.5724373e-001
 -1.3404229e-001
 -1.3097060e-001
 -1.4839548e-001
 -1.4468144e-001
 -1.3054166e-001
 -1.5333588e-001
 -1.5992891e-001
 -1.4254589e-001
 -1.3402375e-001
 -1.5456534e-001
 -1.3899469e-001
 -1.2110238e-001
 -1.4276861e-001
 -1.3399573e-001
 -1.3325892e-001
 -1.4677697e-001
 -1.5718521e-001
 -1.3940712e-001
 -1.4358643e-001
 -1.5467416e-001
 -1.4044679e-001
 -1.2781792e-001
 -1.3470239e-001
 -1.2487212e-001
 -1.0877817e-001
 -1.3633205e-001
 -1.4285058e-001
 -1.2487440e-001
 -1.3273458e-001
 -1.3613164e-001
 -1.2367976e-001
 -1.1225025e-001
 -1.5187312e-001
 -1.3264643e-001
 -1.0948845e-001
 -1.2889940e-001
 -1.1989481e-001
 -1.0914568e-001
 -1.2115440e-001
 -1.4696706e-001
 -1.2711682e-001
 -1.2836139e-001
 -1.3402942e-001
 -1.2608987e-001
 -1.0077564e-001
 -1.0736756e-001
 -1.1214593e-001
 -1.0132492e-001
 -1.0795255e-001
 -1.3151565e-001
 -1.2034413e-001
 -1.1046237e-001
 -1.3330053e-001
 -1.1695469e-001
 -9.9238476e-002
 -1.1713214e-001
 -1.0958207e-001
 -8.8742596e-002
 -9.8749541e-002
 -1.1623512e-001
 -1.0547656e-001
 -1.0818717e-001
 -1.3145495e-001
 -1.2036136e-001
 -9.8496546e-002
 -1.1181381e-001
 -1.0982208e-001
 -9.9200450e-002
 -1.0206272e-001
 -1.1483024e-001
 -9.2710421e-002
 -9.3602820e-002
 -1.1711965e-001
 -1.1409826e-001
 -1.0353435e-001
 -1.1159162e-001
 -1.0685456e-001
 -8.2246652e-002
 -8.8825331e-002
 -9.8950985e-002
 -8.3106198e-002
 -8.5446802e-002
 -1.1053675e-001
 -1.1837489e-001
 -9.1717702e-002
 -1.1526707e-001
 -1.0987543e-001
 -1.0114042e-001
 -9.4186228e-002
 -1.0437682e-001
 -8.2611041e-002
 -8.4327471e-002
 -1.0169361e-001
 -9.3065442e-002
 -9.9431413e-002
 -1.0960966e-001
 -1.1329101e-001
 -7.7566055e-002
 -9.5117190e-002
 -1.0984366e-001
 -9.0773649e-002
 -8.1588770e-002
 -9.0100210e-002
 -8.8309561e-002
 -7.2712887e-002
 -9.5923179e-002
 -1.1028517e-001
 -8.8777356e-002
 -1.0139907e-001
 -1.1305577e-001
 -8.5299226e-002
 -7.3061856e-002
 -9.4505590e-002
 -8.1474336e-002
 -6.1141044e-002
 -8.0061357e-002
 -9.8056154e-002
 -8.8876088e-002
 -8.4881783e-002
 -9.6359594e-002
 -8.5026374e-002
 -8.0654116e-002
 -9.5070874e-002
 -8.6863002e-002
 -6.9362609e-002
 -8.0547812e-002
 -8.0973803e-002
 -6.5133476e-002
 -7.4274117e-002
 -8.2284856e-002
 -7.0491280e-002
 -6.0966866e-002
 -6.9960709e-002
 -7.0450349e-002
 -5.2871732e-002
 -7.3896085e-002
 -1.3167579e-001
 -1.1394667e-001
 -1.1391302e-001
 -1.0753631e-001
  2.7682129e-002
  2.4286082e-001
  3.8094767e-001
  4.5098992e-001
  5.7101914e-001
  8.0114967e-001
  9.0190402e-001
  8.1725105e-001
  6.9340768e-001
  5.1465890e-001
  2.2455144e-001
 -8.1672376e-002
 -2.2758716e-001
 -2.6025227e-001
 -2.9711004e-001
 -3.7696950e-001
 -3.3012482e-001
 -2.3495961e-001
 -1.6407898e-001
 -7.6770845e-002
 -3.8212210e-002
 -6.7927954e-002
 -1.5053547e-001
 -1.6577693e-001
 -1.4628110e-001
 -1.7503713e-001
 -1.7226581e-001
 -1.4866360e-001
 -1.5576449e-001
 -1.7137992e-001
 -1.5320420e-001
 -1.4926643e-001
 -1.6484307e-001
 -1.6155461e-001
 -1.5184134e-001
 -1.7147898e-001
 -1.7306253e-001
 -1.5769362e-001
 -1.5889082e-001
 -1.7548802e-001
 -1.5102111e-001
 -1.3225831e-001
 -1.5878165e-001
 -1.2981329e-001
 -1.1480640e-001
 -1.3319293e-001
 -1.2506378e-001
 -9.9740478e-002
 -1.0836366e-001
 -1.1650922e-001
 -9.1439146e-002
 -7.9290947e-002
 -8.0374295e-002
 -6.3327834e-002
 -3.4579447e-002
 -6.2404583e-002
 -4.4032809e-002
 -1.6488611e-002
 -2.7626370e-002
 -4.1662550e-002
 -1.4056902e-002
 -5.4720105e-004
 -5.1909774e-003
  1.3535376e-002
  4.1239540e-002
  4.1060358e-002
  6.7075504e-002
  9.8184575e-002
  8.4165854e-002
  7.3747731e-002
  8.6196029e-002
  9.4269372e-002
  1.0684475e-001
  1.2125853e-001
  1.4339985e-001
  1.3082400e-001
  1.2810544e-001
  1.7415476e-001
  1.6437806e-001
  1.5147164e-001
  1.7286983e-001
  1.8104066e-001
  1.5797218e-001
  1.7356355e-001
  1.9913564e-001
  1.8062433e-001
  1.8825781e-001
  2.0607838e-001
  1.9188761e-001
  1.9013611e-001
  1.9850252e-001
  1.8846491e-001
  1.6631204e-001
  1.7343501e-001
  1.7730298e-001
  1.6154902e-001
  1.5522075e-001
  1.6413646e-001
  1.5108356e-001
  1.4655849e-001
  1.6965182e-001
  1.4381354e-001
  1.3071628e-001
  1.4069671e-001
  1.3326132e-001
  1.2928248e-001
  1.4237392e-001
  1.3926322e-001
  1.2666404e-001
  1.4907658e-001
  1.6851720e-001
  1.6070835e-001
  1.5873839e-001
  1.7369293e-001
  1.6071645e-001
  1.5827990e-001
  1.8014520e-001
  2.0227323e-001
  1.9257320e-001
  2.0748418e-001
  2.2801572e-001
  2.2582814e-001
  2.3607860e-001
  2.7072518e-001
  2.6320315e-001
  2.2639939e-001
  2.3713684e-001
  2.0431235e-001
  1.4994738e-001
  1.6339448e-001
  1.7983376e-001
  1.4483031e-001
  1.2752650e-001
  1.5459565e-001
  1.2563127e-001
 -7.0166544e-003
 -2.1949220e-001
 -4.1035139e-001
 -5.9711769e-001
 -8.8101412e-001
 -1.0311431e+000
 -1.0834185e+000
 -1.1456162e+000
 -1.1027373e+000
 -9.6793211e-001
 -9.1038275e-001
 -8.6024465e-001
 -8.0433384e-001
 -8.2312041e-001
 -8.4475725e-001
 -8.3578840e-001
 -8.6516158e-001
 -8.8690525e-001
 -8.4548421e-001
 -8.3885412e-001
 -8.6208334e-001
 -8.5622703e-001
 -8.5134052e-001
 -8.8045263e-001
 -8.8217560e-001
 -8.5179809e-001
 -8.6895093e-001
 -8.8065858e-001
 -8.5927608e-001
 -8.5785385e-001
 -8.7472534e-001
 -8.5330560e-001
 -8.2981149e-001
 -8.5845777e-001
 -8.3650504e-001
 -8.0951494e-001
 -8.2415835e-001
 -8.1426938e-001
 -7.8125562e-001
 -7.6776647e-001
 -7.6628976e-001
 -7.3481491e-001
 -7.2621852e-001
 -7.2564952e-001
 -7.0377657e-001
 -6.7118970e-001
 -6.7491193e-001
 -6.6441057e-001
 -6.2067408e-001
 -6.1932950e-001
 -6.2292601e-001
 -5.9400284e-001
 -5.7057320e-001
 -5.6777737e-001
 -5.3103631e-001
 -5.0233157e-001
 -4.8530900e-001
 -4.6988420e-001
 -4.4170533e-001
 -4.4789008e-001
 -4.3446490e-001
 -4.0266077e-001
 -3.7635862e-001
 -3.6827873e-001
 -3.4395276e-001
 -3.1179098e-001
 -3.3017001e-001
 -3.2216722e-001
 -3.0415312e-001
 -2.8450450e-001
 -2.8596740e-001
 -2.4985452e-001
 -2.3880545e-001
 -2.6064217e-001
 -2.2526844e-001
 -1.9935854e-001
 -2.1532241e-001
 -2.1915698e-001
 -2.1121011e-001
 -2.1804805e-001
 -2.2410090e-001
 -2.0623036e-001
 -2.0661744e-001
 -2.2312780e-001
 -2.2129466e-001
 -1.9011574e-001
 -2.0533555e-001
 -2.0919792e-001
 -1.9253410e-001
 -2.0728850e-001
 -2.1767371e-001
 -2.1302278e-001
 -2.0476318e-001
 -2.2652143e-001
 -2.1856725e-001
 -1.9786784e-001
 -2.0680353e-001
 -2.0336420e-001
 -1.9180619e-001
 -1.9651536e-001
 -2.1639107e-001
 -2.0100454e-001
 -1.9738628e-001
 -2.1600068e-001
 -2.1060723e-001
 -2.0087212e-001
 -2.0637261e-001
 -2.0476117e-001
 -1.7818183e-001
 -1.8327023e-001
 -1.9789621e-001
 -1.8822146e-001
 -1.9518412e-001
 -2.1600772e-001
 -2.0422747e-001
 -1.7736875e-001
 -1.8113897e-001
 -1.8998336e-001
 -1.6625998e-001
 -1.7089112e-001
 -1.8849708e-001
 -1.7047587e-001
 -1.7772966e-001
 -1.9298928e-001
 -1.8996504e-001
 -1.6767746e-001
 -1.7947390e-001
 -1.8146524e-001
 -1.6625380e-001
 -1.7490103e-001
 -1.7452577e-001
 -1.6167334e-001
 -1.5016465e-001
 -1.7804310e-001
 -1.7769214e-001
 -1.7538907e-001
 -1.8035346e-001
 -1.9107197e-001
 -1.6681371e-001
 -1.7926764e-001
 -1.8512115e-001
 -1.5887846e-001
 -1.6499810e-001
 -1.7057952e-001
 -1.7375298e-001
 -1.6360780e-001
 -1.7955479e-001
 -1.7886686e-001
 -1.6813186e-001
 -1.7861591e-001
 -1.8526754e-001
 -1.6476829e-001
 -1.5531379e-001
 -1.5954676e-001
 -1.5554529e-001
 -1.5565496e-001
 -1.6972538e-001
 -1.8058414e-001
 -1.7105599e-001
 -1.8215093e-001
 -1.8123822e-001
 -1.6689412e-001
 -1.6471595e-001
 -1.7849353e-001
 -1.7127778e-001
 -1.6369013e-001
 -1.8220564e-001
 -1.8061012e-001
 -1.7595499e-001
 -1.7438939e-001
 -2.0084303e-001
 -1.6613399e-001
 -1.6899320e-001
 -1.7760625e-001
 -1.5876110e-001
 -1.5279119e-001
 -1.6139109e-001
 -1.6589065e-001
 -1.5487638e-001
 -1.6178910e-001
 -1.8200120e-001
 -1.6773145e-001
 -1.5950529e-001
 -1.7269020e-001
 -1.6265386e-001
 -1.4650889e-001
 -1.5716829e-001
 -1.6327026e-001
 -1.4860239e-001
 -1.7470186e-001
 -1.8383770e-001
 -1.5992962e-001
 -1.5330296e-001
 -1.7866138e-001
 -1.6608506e-001
 -1.4637662e-001
 -1.5980915e-001
 -1.6135262e-001
 -1.5663336e-001
 -1.5588008e-001
 -1.7121836e-001
 -1.6479501e-001
 -1.5799357e-001
 -1.8247909e-001
 -1.7948096e-001
 -1.6239433e-001
 -1.7728296e-001
 -1.8805229e-001
 -1.5201917e-001
 -1.5054408e-001
 -1.7404018e-001
 -1.6101119e-001
 -1.6531318e-001
 -1.8543863e-001
 -1.7895901e-001
 -1.6373042e-001
 -1.6947177e-001
 -1.7836142e-001
 -1.5657970e-001
 -1.5569391e-001
 -1.6342624e-001
 -1.5488861e-001
 -1.5551212e-001
 -1.7716743e-001
 -1.7894640e-001
 -1.4758802e-001
 -1.7046730e-001
 -1.7500822e-001
 -1.5116670e-001
 -1.6663891e-001
 -1.5677108e-001
 -1.4534830e-001
 -1.5792304e-001
 -1.6625126e-001
 -1.6669454e-001
 -1.6537777e-001
 -1.7502127e-001
 -1.8416591e-001
 -1.6224888e-001
 -1.6399041e-001
 -1.7382751e-001
 -1.5182360e-001
 -1.5161631e-001
 -1.5852661e-001
 -1.4624454e-001
 -1.4327658e-001
 -1.7154929e-001
 -1.7970107e-001
 -1.4985622e-001
 -1.6620649e-001
 -1.7420405e-001
 -1.5312698e-001
 -1.6307464e-001
 -1.7630323e-001
 -1.4631016e-001
 -1.3174808e-001
 -1.5235299e-001
 -1.5413362e-001
 -1.4064857e-001
 -1.4964948e-001
 -1.5769877e-001
 -1.4370878e-001
 -1.5041917e-001
 -1.6121817e-001
 -1.4709378e-001
 -1.4204342e-001
 -1.6962695e-001
 -1.6162444e-001
 -1.3205394e-001
 -1.5465444e-001
 -1.5933246e-001
 -1.3745680e-001
 -1.3397960e-001
 -1.5101976e-001
 -1.4915383e-001
 -1.2214075e-001
 -1.3079353e-001
 -1.2968371e-001
 -1.0961954e-001
 -1.4620235e-001
 -2.1154064e-001
 -2.3565254e-001
 -2.3626070e-001
 -1.7985737e-001
  2.5030946e-002
  2.5183231e-001
  3.3695652e-001
  4.1186475e-001
  6.6174238e-001
  7.8432880e-001
  6.9764817e-001
  6.0200226e-001
  4.1753495e-001
  8.1813513e-002
 -1.8787988e-001
 -2.7165109e-001
 -3.3466822e-001
 -3.9749452e-001
 -4.1997655e-001
 -3.6795950e-001
 -3.2546072e-001
 -2.2911611e-001
 -1.4352831e-001
 -1.2724845e-001
 -1.6006589e-001
 -2.1914390e-001
 -2.4620983e-001
 -2.4069284e-001
 -2.1592588e-001
 -2.2374882e-001
 -2.3236345e-001
 -2.1658048e-001
 -2.1721723e-001
 -2.3244989e-001
 -2.2764280e-001
 -2.3017849e-001
 -2.4727585e-001
 -2.4182294e-001
 -2.1379200e-001
 -2.2583229e-001
 -2.4087142e-001
 -2.0324762e-001
 -1.9541796e-001
 -2.1918452e-001
 -1.9784118e-001
 -1.9623162e-001
 -2.0930118e-001
 -1.9135379e-001
 -1.7641443e-001
 -1.9090058e-001
 -1.9173062e-001
 -1.5678565e-001
 -1.4914875e-001
 -1.5287080e-001
 -1.3122337e-001
 -1.2200160e-001
 -1.4305315e-001
 -1.3117194e-001
 -1.0663727e-001
 -1.2711920e-001
 -1.1239044e-001
 -7.9439441e-002
 -6.9943003e-002
 -7.3878414e-002
 -5.1686629e-002
 -2.5201153e-002
 -3.6817415e-002
 -4.6421838e-002
 -1.5842516e-002
 -1.6777706e-002
 -2.5680508e-002
  4.8964527e-003
  1.7015248e-002
  1.1161455e-002
  2.8189934e-002
  5.3477308e-002
  4.1941030e-002
  4.9926425e-002
  6.9557487e-002
  6.3933973e-002
  5.3065345e-002
  8.1464194e-002
  8.9534551e-002
  7.4774841e-002
  1.0734151e-001
  1.0963700e-001
  1.0528345e-001
  9.9922516e-002
  1.0959037e-001
  1.0649881e-001
  9.4290965e-002
  9.7733344e-002
  9.5091544e-002
  7.9245731e-002
  9.3446696e-002
  9.4055888e-002
  7.1002753e-002
  8.6574971e-002
  7.7587628e-002
  6.2533341e-002
  5.5143830e-002
  6.2242505e-002
  5.2972182e-002
  3.8557953e-002
  4.0900644e-002
  4.3983659e-002
  3.9956779e-002
  5.8416032e-002
  6.9711864e-002
  5.1884154e-002
  4.2056724e-002
  5.5796060e-002
  5.6765023e-002
  5.0957924e-002
  7.9373923e-002
  9.0400548e-002
  9.1581933e-002
  1.0897119e-001
  1.2941895e-001
  1.3729881e-001
  1.3204667e-001
  1.4368906e-001
  1.6725412e-001
  1.5932296e-001
  1.4829514e-001
  1.3348873e-001
  1.1120737e-001
  1.3373222e-001
  1.8464030e-001
  2.0399788e-001
  2.1365099e-001
  2.2517809e-001
  1.4945804e-001
  2.0255220e-002
 -1.3973153e-001
 -3.2455547e-001
 -5.4882721e-001
 -7.3002956e-001
 -8.9551242e-001
 -1.0281599e+000
 -1.0269411e+000
 -9.3613743e-001
 -7.7570887e-001
 -6.3442433e-001
 -5.1809580e-001
 -4.9674861e-001
 -6.1015743e-001
 -7.0804616e-001
 -7.8797471e-001
 -8.5278931e-001
 -8.8180062e-001
 -8.6669872e-001
 -8.8772131e-001
 -9.0370129e-001
 -8.9890914e-001
 -9.0028522e-001
 -9.1354600e-001
 -9.0554178e-001
 -8.9687067e-001
 -9.1079406e-001
 -9.1338688e-001
 -9.0551191e-001
 -8.9729091e-001
 -9.1490517e-001
 -8.9961588e-001
 -8.8883868e-001
 -9.0586725e-001
 -8.8954952e-001
 -8.6425906e-001
 -8.8104121e-001
 -8.7466930e-001
 -8.3346821e-001
 -8.3690429e-001
 -8.3030840e-001
 -8.1283180e-001
 -8.0026460e-001
 -8.1280852e-001
 -8.0561149e-001
 -7.8060565e-001
 -7.9967461e-001
 -7.8872067e-001
 -7.3846310e-001
 -7.1596916e-001
 -7.1564285e-001
 -6.8958695e-001
 -6.6260342e-001
 -6.7832633e-001
 -6.6331922e-001
 -6.3726730e-001
 -6.4422684e-001
 -6.2834235e-001
 -6.0588101e-001
 -6.0200839e-001
 -6.1533724e-001
 -5.8152833e-001
 -5.5166575e-001
 -5.7123876e-001
 -5.4827672e-001
 -5.1019437e-001
 -5.1022086e-001
 -5.1170397e-001
 -4.8038274e-001
 -4.6948339e-001
 -4.7606514e-001
 -4.3505286e-001
 -4.1657006e-001
 -4.2137924e-001
 -4.0234192e-001
 -3.7391796e-001
 -3.6993059e-001
 -3.6953206e-001
 -3.5019351e-001
 -3.6542720e-001
 -3.7701983e-001
 -3.4551222e-001
 -3.2266117e-001
 -3.3913090e-001
 -3.2642502e-001
 -2.9844486e-001
 -3.0123229e-001
 -3.0084455e-001
 -2.7386452e-001
 -2.7020769e-001
 -2.8596660e-001
 -2.6276944e-001
 -2.4918089e-001
 -2.5774836e-001
 -2.6012956e-001
 -2.3733605e-001
 -2.3767528e-001
 -2.4222101e-001
 -2.2058264e-001
 -2.2278808e-001
 -2.2580284e-001
 -2.2366586e-001
 -2.2527994e-001
 -2.4443345e-001
 -2.3122334e-001
 -2.1080057e-001
 -2.1916778e-001
 -2.2837500e-001
 -2.0643767e-001
 -2.0017725e-001
 -2.1240956e-001
 -2.0935876e-001
 -2.0314544e-001
 -2.1887191e-001
 -2.1389996e-001
 -2.0707457e-001
 -2.1294065e-001
 -2.2660805e-001
 -1.9917402e-001
 -1.8260923e-001
 -2.0093135e-001
 -1.8081699e-001
 -1.6989391e-001
 -1.9895839e-001
 -2.0328034e-001
 -1.9754720e-001
 -1.9761003e-001
 -2.0802386e-001
 -1.8721607e-001
 -1.8942719e-001
 -2.0065437e-001
 -1.8055219e-001
 -1.6852572e-001
 -1.8429841e-001
 -1.9450444e-001
 -1.7723017e-001
 -1.9654149e-001
 -2.0551886e-001
 -1.8104869e-001
 -1.9585530e-001
 -1.9995310e-001
 -1.8118655e-001
 -1.7146533e-001
 -1.9063236e-001
 -1.8405969e-001
 -1.6878520e-001
 -1.8460606e-001
 -1.9828539e-001
 -1.8208354e-001
 -1.8177858e-001
 -1.9504465e-001
 -1.7874304e-001
 -1.7581331e-001
 -1.8268550e-001
 -1.7705575e-001
 -1.6476503e-001
 -1.7850813e-001
 -1.8431417e-001
 -1.6716712e-001
 -1.8466452e-001
 -1.9935994e-001
 -1.7927730e-001
 -1.6942156e-001
 -1.9447545e-001
 -1.7475215e-001
 -1.4651586e-001
 -1.6557570e-001
 -1.7704189e-001
 -1.6821868e-001
 -1.6945129e-001
 -1.8398765e-001
 -1.7783861e-001
 -1.6588996e-001
 -1.7737726e-001
 -1.6863496e-001
 -1.4583580e-001
 -1.6172388e-001
 -1.6796099e-001
 -1.5644210e-001
 -1.6963094e-001
 -1.7967999e-001
 -1.6426512e-001
 -1.6520668e-001
 -1.7937719e-001
 -1.8505567e-001
 -1.6028517e-001
 -1.7278510e-001
 -1.6477542e-001
 -1.4678311e-001
 -1.5601202e-001
 -1.7559027e-001
 -1.7446753e-001
 -1.6374060e-001
 -1.7866766e-001
 -1.7582296e-001
 -1.6450616e-001
 -1.8827716e-001
 -1.6423813e-001
 -1.5010664e-001
 -1.6601732e-001
 -1.6642605e-001
 -1.6407841e-001
 -1.5188094e-001
 -1.7470806e-001
 -1.7695644e-001
 -1.6988704e-001
 -1.8029099e-001
 -1.7378002e-001
 -1.6942607e-001
 -1.6796778e-001
 -1.7115396e-001
 -1.4895813e-001
 -1.5488174e-001
 -1.8219399e-001
 -1.7495878e-001
 -1.5446899e-001
 -1.7725330e-001
 -1.7223979e-001
 -1.5477287e-001
 -1.5814353e-001
 -1.6885567e-001
 -1.5545484e-001
 -1.4321305e-001
 -1.5484289e-001
 -1.5336854e-001
 -1.4915237e-001
 -1.7304032e-001
 -1.8221299e-001
 -1.5587659e-001
 -1.6593732e-001
 -1.7333053e-001
 -1.5222771e-001
 -1.4698240e-001
 -1.6370719e-001
 -1.6223951e-001
 -1.3937937e-001
 -1.6616043e-001
 -1.6658397e-001
 -1.5277785e-001
 -1.5905072e-001
 -1.6362227e-001
 -1.5226666e-001
 -1.4980594e-001
 -1.7526148e-001
 -1.4901376e-001
 -1.4273056e-001
 -1.4758125e-001
 -1.6812565e-001
 -1.4540254e-001
 -1.4768199e-001
 -1.6718480e-001
 -1.4653810e-001
 -1.5425169e-001
 -1.8038760e-001
 -1.6598303e-001
 -1.4717042e-001
 -1.7521597e-001
 -1.5922336e-001
 -1.3372740e-001
 -1.3993033e-001
 -1.6196594e-001
 -1.6673830e-001
 -1.5509076e-001
 -1.7394595e-001
 -1.6414825e-001
 -1.4524837e-001
 -1.6179063e-001
 -1.6482228e-001
 -1.3753909e-001
 -1.4646837e-001
 -1.5260569e-001
 -1.3676161e-001
 -1.3900631e-001
 -1.7010083e-001
 -1.6251089e-001
 -1.4813680e-001
 -1.7267047e-001
 -1.5129130e-001
 -1.2545382e-001
 -1.1680055e-001
 -1.3365582e-001
 -1.0129114e-001
 -1.0974630e-001
 -1.3498152e-001
 -1.3290911e-001
 -1.4718018e-001
 -2.0633752e-001
 -2.3760801e-001
 -2.1435085e-001
 -1.6174695e-001
  1.1161052e-002
  2.2290781e-001
  3.3997898e-001
  3.9167915e-001
  5.9496013e-001
  7.6844181e-001
  6.9188537e-001
  5.7619658e-001
  4.5407395e-001
  1.5568243e-001
 -1.6275651e-001
 -2.5891174e-001
 -2.9152053e-001
 -3.6853782e-001
 -4.1576622e-001
 -3.5389501e-001
 -3.1511586e-001
 -2.5006856e-001
 -1.4062936e-001
 -1.1940168e-001
 -1.7849355e-001
 -2.1475475e-001
 -2.3009392e-001
 -2.3573295e-001
 -2.2082149e-001
 -2.0515560e-001
 -2.1233713e-001
 -2.1543436e-001
 -2.0771268e-001
 -2.2947965e-001
 -2.3806293e-001
 -2.1533111e-001
 -2.2075231e-001
 -2.2178263e-001
 -2.1139358e-001
 -1.9585972e-001
 -2.0445578e-001
 -1.9907609e-001
 -1.8015159e-001
 -1.9731301e-001
 -2.0451469e-001
 -1.8089018e-001
 -1.6674715e-001
 -1.8901518e-001
 -1.6756366e-001
 -1.4449161e-001
 -1.5162800e-001
 -1.5011620e-001
 -1.2643142e-001
 -1.3334632e-001
 -1.4187754e-001
 -1.2500242e-001
 -1.1312831e-001
 -1.3096838e-001
 -1.0786022e-001
 -9.2862062e-002
 -1.0189441e-001
 -9.1580240e-002
 -5.5588509e-002
 -7.1476191e-002
 -5.7395753e-002
 -3.5692828e-002
 -3.8400000e-002
 -5.6613972e-002
 -3.3311996e-002
 -1.6525999e-002
 -2.4375344e-002
 -1.9678551e-002
  1.2751281e-002
  6.2495027e-003
  1.6286715e-003
  2.9249082e-002
  4.6630706e-002
  4.2161968e-002
  5.7157181e-002
  6.0943821e-002
  5.1499348e-002
  4.8316080e-002
  7.5392829e-002
  7.4207337e-002
  7.1911648e-002
  9.2970288e-002
  1.0699236e-001
  8.6555868e-002
  1.0248664e-001
  1.2505178e-001
  1.0139079e-001
  9.6363105e-002
  9.9968745e-002
  9.4157253e-002
  8.2043751e-002
  8.8180200e-002
  8.5368453e-002
  7.7812943e-002
  8.0400136e-002
  1.0309233e-001
  7.8622461e-002
  7.2047802e-002
  8.7789460e-002
  7.0781028e-002
  3.5427134e-002
  6.6141478e-002
  6.1893683e-002
  3.1297785e-002
  4.5397294e-002
  6.3945831e-002
  4.3150196e-002
  5.0156058e-002
  7.6276478e-002
  6.8247039e-002
  6.1790482e-002
  6.8026129e-002
  7.1682762e-002
  6.4776031e-002
  6.6370715e-002
  7.8092754e-002
  7.6678960e-002
  8.0280900e-002
  1.0862886e-001
  1.0464519e-001
  1.0401967e-001
  1.3211749e-001
  1.4327794e-001
  1.3271754e-001
  1.4519452e-001
  1.7785565e-001
  1.7505154e-001
  1.7758245e-001
  1.9718630e-001
  1.6338128e-001
  1.4886388e-001
  1.8153162e-001
  1.8600249e-001
  1.6395371e-001
  1.7992242e-001
  1.6941299e-001
  1.2473666e-001
  7.0901307e-002
 -3.7788875e-003
 -1.2855259e-001
 -3.4032085e-001
 -5.3501125e-001
 -6.4807645e-001
 -8.9681938e-001
 -1.0914774e+000
 -1.0973194e+000
 -1.1097377e+000
 -1.0968557e+000
 -9.5519222e-001
 -8.3178960e-001
 -7.5435154e-001
 -7.0335646e-001
 -7.3058542e-001
 -7.7642692e-001
 -8.0756532e-001
 -8.1550146e-001
 -8.6598725e-001
 -8.9341928e-001
 -8.8802030e-001
 -8.8882216e-001
 -9.0370075e-001
 -8.9013689e-001
 -8.9546155e-001
 -9.1432074e-001
 -8.9530506e-001
 -8.8526260e-001
 -9.0677979e-001
 -9.0721516e-001
 -8.9231878e-001
 -8.9017637e-001
 -8.9690011e-001
 -8.7274980e-001
 -8.6244426e-001
 -8.7023941e-001
 -8.6036371e-001
 -8.4145919e-001
 -8.3997597e-001
 -8.3768002e-001
 -8.0206862e-001
 -7.9139533e-001
 -8.0577348e-001
 -7.7751019e-001
 -7.6255267e-001
 -7.7108277e-001
 -7.5300162e-001
 -7.1559269e-001
 -7.2692579e-001
 -7.1945051e-001
 -6.8548539e-001
 -6.5738872e-001
 -6.5232570e-001
 -6.3702194e-001
 -6.2196199e-001
 -6.3285801e-001
 -6.1936495e-001
 -5.8412437e-001
 -5.8584345e-001
 -5.6930541e-001
 -5.3360132e-001
 -5.2837515e-001
 -5.1759216e-001
 -4.9049100e-001
 -4.6710137e-001
 -4.7114061e-001
 -4.4809044e-001
 -4.1988490e-001
 -4.1373316e-001
 -3.9796900e-001
 -3.4495536e-001
 -3.3462318e-001
 -3.4685553e-001
 -3.1139125e-001
 -2.9945464e-001
 -2.8269555e-001
 -2.5980628e-001
 -2.4690023e-001
 -2.6947605e-001
 -2.7071181e-001
 -2.5649339e-001
 -2.4777521e-001
 -2.5337015e-001
 -2.2566802e-001
 -2.2682229e-001
 -2.4769896e-001
 -2.3679149e-001
 -2.2909235e-001
 -2.2981382e-001
 -2.5288970e-001
 -2.3323279e-001
 -2.3748416e-001
 -2.3993871e-001
 -2.2417851e-001
 -2.1854425e-001
 -2.2990015e-001
 -2.3092363e-001
 -1.9780325e-001
 -2.2137196e-001
 -2.2150005e-001
 -2.0506550e-001
 -2.2726112e-001
 -2.3664223e-001
 -2.0663617e-001
 -2.1133822e-001
 -2.2806619e-001
 -2.1017432e-001
 -1.8667811e-001
 -2.0319223e-001
 -2.0969220e-001
 -1.9399883e-001
 -2.0130910e-001
 -2.1287130e-001
 -2.1151239e-001
 -1.9423340e-001
 -2.0948999e-001
 -2.0522056e-001
 -1.9487144e-001
 -2.0339337e-001
 -1.9694824e-001
 -1.8801654e-001
 -1.8694740e-001
 -2.0335751e-001
 -2.0184072e-001
 -1.8984368e-001
 -2.1030228e-001
 -1.9459970e-001
 -1.8326741e-001
 -1.9385270e-001
 -1.9652108e-001
 -1.6105272e-001
 -1.7399459e-001
 -2.0120732e-001
 -1.8711408e-001
 -1.9032141e-001
 -2.0761772e-001
 -1.9529265e-001
 -1.7686664e-001
 -1.9613421e-001
 -1.9875798e-001
 -1.7515375e-001
 -1.7576291e-001
 -1.8706881e-001
 -1.7007672e-001
 -1.7461233e-001
 -1.9229288e-001
 -1.8432167e-001
 -1.6464199e-001
 -1.8488877e-001
 -1.9623807e-001
 -1.7039337e-001
 -1.6873147e-001
 -1.8006315e-001
 -1.6558969e-001
 -1.6193105e-001
 -1.8644947e-001
 -1.7451736e-001
 -1.6398767e-001
 -1.7742777e-001
 -1.8944771e-001
 -1.6498384e-001
 -1.7908622e-001
 -1.9058596e-001
 -1.6208053e-001
 -1.5577974e-001
 -1.8219207e-001
 -1.8006911e-001
 -1.7616508e-001
 -1.9093948e-001
 -1.9830976e-001
 -1.7986605e-001
 -1.9560359e-001
 -1.9937533e-001
 -1.7506717e-001
 -1.7166996e-001
 -1.9189797e-001
 -1.9189100e-001
 -1.6281464e-001
 -1.8404485e-001
 -1.9111038e-001
 -1.7242902e-001
 -1.8591975e-001
 -1.9222135e-001
 -1.8121860e-001
 -1.8643219e-001
 -1.9553410e-001
 -1.8770147e-001
 -1.6838608e-001
 -1.8231657e-001
 -1.8793024e-001
 -1.6255225e-001
 -1.8447462e-001
 -1.9030680e-001
 -1.7759598e-001
 -1.7559209e-001
 -1.8403941e-001
 -1.7973732e-001
 -1.5965991e-001
 -1.7584557e-001
 -1.7513227e-001
 -1.6811604e-001
 -1.6731726e-001
 -1.8618861e-001
 -1.8109586e-001
 -1.7707185e-001
 -1.8547750e-001
 -1.8040397e-001
 -1.7638399e-001
 -1.7886472e-001
 -1.7727124e-001
 -1.5511451e-001
 -1.6187473e-001
 -1.6972703e-001
 -1.5780536e-001
 -1.6240787e-001
 -1.8968612e-001
 -1.7492981e-001
 -1.6973965e-001
 -1.7787578e-001
 -1.7335888e-001
 -1.6148150e-001
 -1.7045255e-001
 -1.7189068e-001
 -1.5513745e-001
 -1.7135991e-001
 -1.8945571e-001
 -1.8685670e-001
 -1.6998680e-001
 -1.8387523e-001
 -1.8565981e-001
 -1.6244804e-001
 -1.8241377e-001
 -1.8579277e-001
 -1.5995068e-001
 -1.6191461e-001
 -1.7590556e-001
 -1.6392347e-001
 -1.6739278e-001
 -1.8475748e-001
 -1.9083808e-001
 -1.7606633e-001
 -1.8236867e-001
 -1.8224016e-001
 -1.6493955e-001
 -1.6826331e-001
 -1.6773250e-001
 -1.6459062e-001
 -1.4566904e-001
 -1.8004128e-001
 -1.8709312e-001
 -1.5955611e-001
 -1.7153911e-001
 -1.7456687e-001
 -1.6312391e-001
 -1.6258455e-001
 -1.7419057e-001
 -1.6111667e-001
 -1.4393731e-001
 -1.6497658e-001
 -1.8226035e-001
 -1.7196087e-001
 -1.6125357e-001
 -1.8869949e-001
 -1.6019111e-001
 -1.6993507e-001
 -1.9408638e-001
 -1.6690738e-001
 -1.4888798e-001
 -1.7485351e-001
 -1.6562903e-001
 -1.5605404e-001
 -1.7828366e-001
 -1.7770122e-001
 -1.6620569e-001
 -1.5750579e-001
 -1.8518179e-001
 -1.7060695e-001
 -1.4724605e-001
 -1.6056577e-001
 -1.4143698e-001
 -1.2228965e-001
 -1.2766581e-001
 -1.4058451e-001
 -1.1545264e-001
 -1.1085358e-001
 -1.7443675e-001
 -1.9783328e-001
 -1.6708698e-001
 -1.5401467e-001
 -6.3492989e-003
  2.2578345e-001
  3.4090909e-001
  3.6629674e-001
  5.3676989e-001
  7.3927175e-001
  7.1007226e-001
  6.1140550e-001
  5.0076107e-001
  2.2100575e-001
 -1.0797759e-001
 -2.2662292e-001
 -2.6530660e-001
 -3.3156647e-001
 -3.7463638e-001
 -3.7787421e-001
 -3.3699258e-001
 -2.5897236e-001
 -1.5818401e-001
 -1.4570527e-001
 -1.9171283e-001
 -2.2437880e-001
 -2.4673939e-001
 -2.4907165e-001
 -2.2635905e-001
 -2.3294332e-001
 -2.6027634e-001
 -2.5160761e-001
 -2.3792442e-001
 -2.5809716e-001
 -2.6442751e-001
 -2.3793722e-001
 -2.4993367e-001
 -2.4323554e-001
 -2.1924460e-001
 -2.1998910e-001
 -2.3909435e-001
 -2.4994052e-001
 -2.2242462e-001
 -2.3910318e-001
 -2.3475428e-001
 -2.0778148e-001
 -2.2365779e-001
 -2.1469210e-001
 -1.9614059e-001
 -1.8025098e-001
 -1.8334350e-001
 -1.7313488e-001
 -1.5805238e-001
 -1.7975201e-001
 -1.7000054e-001
 -1.4454134e-001
 -1.5264728e-001
 -1.5740831e-001
 -1.2327133e-001
 -1.1798384e-001
 -1.3658132e-001
 -1.1594079e-001
 -8.6375172e-002
 -1.0355145e-001
 -8.4472078e-002
 -6.1729298e-002
 -7.4650300e-002
 -8.3511578e-002
 -4.3007512e-002
 -4.0606738e-002
 -4.8484916e-002
 -2.7546563e-002
 -6.0308020e-003
 -7.4876341e-003
 -1.4106376e-002
  1.8742911e-002
  9.6562302e-003
 -5.0243120e-004
  2.4502617e-002
  4.0357426e-002
  3.1324520e-002
  4.5229383e-002
  6.4254852e-002
  5.3220518e-002
  6.9898871e-002
  8.9282726e-002
  8.1101816e-002
  8.3736405e-002
  9.4288852e-002
  9.2230347e-002
  6.8727324e-002
  9.0840829e-002
  9.7920590e-002
  7.3353814e-002
  8.1206350e-002
  1.0558941e-001
  9.0588621e-002
  7.4732214e-002
  8.6284526e-002
  7.0020487e-002
  4.9070175e-002
  5.4677557e-002
  6.6491003e-002
  5.5145574e-002
  5.4806166e-002
  6.5601444e-002
  6.6281465e-002
  5.2100368e-002
  7.8872978e-002
  8.3348410e-002
  4.1226738e-002
  7.1579724e-002
  8.8384458e-002
  6.6876301e-002
  7.6421115e-002
  1.0515189e-001
  9.8408716e-002
  9.4595296e-002
  1.1923052e-001
  1.3296718e-001
  1.1811836e-001
  1.4192402e-001
  1.5815433e-001
  1.4629972e-001
  1.6133787e-001
  1.9059087e-001
  1.9315541e-001
  1.8907560e-001
  2.2784708e-001
  2.3065387e-001
  2.0269549e-001
  1.9249377e-001
  1.7549776e-001
  1.4454681e-001
  1.4427196e-001
  1.6026234e-001
  1.2693848e-001
  5.5646552e-002
  1.0627937e-002
 -5.3781066e-002
 -1.2245706e-001
 -2.0833828e-001
 -4.1212615e-001
 -5.9970872e-001
 -7.0540929e-001
 -8.9882435e-001
 -1.0316345e+000
 -1.0433239e+000
 -1.0086060e+000
 -9.1312480e-001
 -7.8462573e-001
 -7.2873212e-001
 -7.1861042e-001
 -7.3480750e-001
 -7.7666277e-001
 -8.1282913e-001
 -8.4989922e-001
 -8.6663611e-001
 -8.5940424e-001
 -8.5450232e-001
 -8.7464323e-001
 -8.6218414e-001
 -8.5504553e-001
 -8.6606257e-001
 -8.6785688e-001
 -8.4814873e-001
 -8.7089081e-001
 -8.9178304e-001
 -8.5435844e-001
 -8.5999854e-001
 -8.7440344e-001
 -8.4795138e-001
 -8.2733725e-001
 -8.2844412e-001
 -8.1409022e-001
 -7.9834731e-001
 -7.9760112e-001
 -8.0918218e-001
 -7.9265787e-001
 -7.7177769e-001
 -7.8844907e-001
 -7.5025044e-001
 -7.1897967e-001
 -7.3183130e-001
 -7.0939403e-001
 -6.7576103e-001
 -6.6155668e-001
 -6.6693762e-001
 -6.2977464e-001
 -6.1584787e-001
 -6.1629830e-001
 -5.9290327e-001
 -5.7003692e-001
 -5.6580286e-001
 -5.4910474e-001
 -5.1765126e-001
 -5.0217990e-001
 -4.8937740e-001
 -4.6348850e-001
 -4.4988276e-001
 -4.6083420e-001
 -4.3695835e-001
 -4.0771521e-001
 -4.0400480e-001
 -3.8087872e-001
 -3.4841015e-001
 -3.3658253e-001
 -3.2319726e-001
 -2.7748410e-001
 -2.6565699e-001
 -2.7868652e-001
 -2.5866898e-001
 -2.3089231e-001
 -2.2321741e-001
 -2.1229412e-001
 -1.8181378e-001
 -1.9496497e-001
 -1.9103912e-001
 -1.6055168e-001
 -1.5505671e-001
 -1.6484434e-001
 -1.5213312e-001
 -1.3260868e-001
 -1.5719555e-001
 -1.7062515e-001
 -1.4713791e-001
 -1.6272461e-001
 -1.6107380e-001
 -1.2343914e-001
 -1.2452006e-001
 -1.4932268e-001
 -1.3226779e-001
 -1.3568627e-001
 -1.6282439e-001
 -1.4314956e-001
 -1.3375775e-001
 -1.4192814e-001
 -1.4754402e-001
 -1.2649883e-001
 -1.2726526e-001
 -1.3622091e-001
 -1.1881240e-001
 -1.0917119e-001
 -1.3102925e-001
 -1.4604186e-001
 -1.2808523e-001
 -1.3668624e-001
 -1.5503163e-001
 -1.1987501e-001
 -1.1785798e-001
 -1.3710159e-001
 -1.1119264e-001
 -1.0812535e-001
 -1.2588129e-001
 -1.2709206e-001
 -1.2480741e-001
 -1.2869091e-001
 -1.3809572e-001
 -1.2347077e-001
 -1.1493819e-001
 -1.4141766e-001
 -1.1341745e-001
 -9.9113980e-002
 -1.1486485e-001
 -1.1428066e-001
 -1.0613539e-001
 -1.2427206e-001
 -1.2578139e-001
 -1.0268968e-001
 -1.0050685e-001
 -1.3297764e-001
 -1.1702344e-001
 -1.0391300e-001
 -1.0911233e-001
 -1.0415150e-001
 -8.1199103e-002
 -1.0408463e-001
 -1.2754442e-001
 -1.0453410e-001
 -1.0676674e-001
 -1.2021094e-001
 -1.0721066e-001
 -9.3371400e-002
 -1.0915105e-001
 -9.6150888e-002
 -7.6240323e-002
 -9.4023057e-002
 -1.0592751e-001
 -8.8866653e-002
 -9.5764842e-002
 -1.1761049e-001
 -9.9290303e-002
 -9.9115596e-002
 -1.2069216e-001
 -1.0798715e-001
 -7.4163540e-002
 -9.3409641e-002
 -9.5852505e-002
 -7.8479679e-002
 -9.4549569e-002
 -1.1248551e-001
 -9.5518203e-002
 -8.6962838e-002
 -1.1384141e-001
 -9.9502287e-002
 -9.3834480e-002
 -9.0901955e-002
 -9.0350990e-002
 -7.0186509e-002
 -8.3407082e-002
 -1.0006486e-001
 -9.2633445e-002
 -9.0629503e-002
 -1.0543133e-001
 -1.0397962e-001
 -8.3784950e-002
 -9.0780714e-002
 -9.5524481e-002
 -7.6170438e-002
 -8.2119078e-002
 -9.5904181e-002
 -8.6916078e-002
 -8.3538529e-002
 -1.0529777e-001
 -1.0281349e-001
 -9.0457284e-002
 -1.0719891e-001
 -1.2042302e-001
 -9.6959698e-002
 -8.4972791e-002
 -1.0622836e-001
 -9.6045982e-002
 -9.3511564e-002
 -1.1804709e-001
 -1.1242501e-001
 -1.0110466e-001
 -1.1774184e-001
 -1.1557399e-001
 -1.0213033e-001
 -1.0114147e-001
 -1.1397899e-001
 -9.4025575e-002
 -9.1324625e-002
 -1.1000691e-001
 -1.1545836e-001
 -9.0896504e-002
 -1.0529736e-001
 -1.1387727e-001
 -1.0100184e-001
 -1.0520590e-001
 -1.1622897e-001
 -9.3295551e-002
 -8.9858644e-002
 -1.1034997e-001
 -1.0593005e-001
 -9.7271788e-002
 -1.0781759e-001
 -1.1449658e-001
 -1.0889332e-001
 -9.7775334e-002
 -1.0794146e-001
 -9.3672426e-002
 -8.5732112e-002
 -1.0497567e-001
 -1.0714627e-001
 -9.6793242e-002
 -1.1853587e-001
 -1.2830193e-001
 -1.1325515e-001
 -1.0957289e-001
 -1.2210565e-001
 -1.1024117e-001
 -9.3402137e-002
 -1.1629020e-001
 -1.1136303e-001
 -1.0377174e-001
 -1.1791206e-001
 -1.3327051e-001
 -1.0356245e-001
 -1.0536141e-001
 -1.2566327e-001
 -1.0319912e-001
 -9.9583076e-002
 -1.1468982e-001
 -1.0641955e-001
 -9.1229262e-002
 -1.2506524e-001
 -1.2347538e-001
 -9.5167613e-002
 -1.1313926e-001
 -1.1780822e-001
 -1.0192691e-001
 -1.1036420e-001
 -1.1223698e-001
 -9.5716175e-002
 -8.2094448e-002
 -1.1038792e-001
 -1.0894097e-001
 -1.0116016e-001
 -1.0692128e-001
 -1.2125289e-001
 -1.0185061e-001
 -9.6548044e-002
 -1.2183290e-001
 -1.0803492e-001
 -8.2517141e-002
 -1.0137210e-001
 -1.1168224e-001
 -9.8406743e-002
 -9.7581966e-002
 -1.1714218e-001
 -1.0795500e-001
 -9.5311712e-002
 -1.2112528e-001
 -9.9377432e-002
 -1.0213540e-001
 -1.5014742e-001
 -1.5455922e-001
 -1.2197500e-001
 -1.3517951e-002
  1.9530836e-001
  3.6227274e-001
  4.1502615e-001
  6.0234080e-001
  7.8540596e-001
  7.2871408e-001
  5.8035355e-001
  3.3326543e-001
 -1.7228347e-002
 -1.7866824e-001
 -2.3421070e-001
 -3.0627530e-001
 -2.4817830e-001
 -1.7119807e-001
 -7.8347607e-002
 -4.7847463e-002
 -1.2925184e-001
 -1.9443113e-001
 -1.8493239e-001
 -1.7644015e-001
 -1.9598571e-001
 -1.7589474e-001
 -1.6929392e-001
 -1.8137577e-001
 -1.7036277e-001
 -1.6288698e-001
 -1.7423129e-001
 -1.7885781e-001
 -1.7166498e-001
 -1.6640806e-001
 -1.8088238e-001
 -1.6987578e-001
 -1.5891151e-001
 -1.7642828e-001
 -1.6014648e-001
 -1.4268161e-001
 -1.5189219e-001
 -1.6195715e-001
 -1.4766045e-001
 -1.4363215e-001
 -1.5102578e-001
 -1.2708970e-001
 -1.1799701e-001
 -1.3509879e-001
 -1.1145666e-001
 -8.5362455e-002
 -8.8140384e-002
 -8.7275710e-002
 -6.8805233e-002
 -7.6347407e-002
 -9.1230252e-002
 -6.0346894e-002
 -4.6449645e-002
 -5.6750622e-002
 -3.9601470e-002
 -2.0731441e-002
 -1.3406462e-002
 -2.1026145e-002
  1.6581957e-002
  9.4349796e-003
 -1.1928230e-002
  1.9645270e-002
  2.5700970e-002
  1.2134022e-002
  2.8720601e-002
  5.2158930e-002
  5.6700604e-002
  5.2712298e-002
  7.5955645e-002
  7.6236052e-002
  6.0693828e-002
  7.8127182e-002
  9.0123628e-002
  7.3570643e-002
  8.6734762e-002
  1.0032137e-001
  9.4636280e-002
  9.2796597e-002
  1.1204942e-001
  1.1135005e-001
  9.8846474e-002
  1.0818777e-001
  1.0722059e-001
  8.5691194e-002
  9.4968947e-002
  1.1006957e-001
  9.1450367e-002
  8.2252829e-002
  9.9860349e-002
  1.0583797e-001
  8.7787945e-002
  8.8466594e-002
  9.1423659e-002
  6.7857044e-002
  8.0052158e-002
  8.8580176e-002
  6.8560868e-002
  7.9529066e-002
  1.0120302e-001
  1.0344572e-001
  1.0085818e-001
  1.2124709e-001
  1.1781481e-001
  1.0838728e-001
  1.1043219e-001
  1.3786771e-001
  1.3145535e-001
  1.2801594e-001
  1.6135634e-001
  1.6775016e-001
  1.6564336e-001
  1.9743066e-001
  2.0300130e-001
  1.8984925e-001
  2.2971101e-001
  2.3940501e-001
  2.3990983e-001
  2.3638265e-001
  2.1535183e-001
  1.7446688e-001
  1.5439079e-001
  1.5111141e-001
  1.3948613e-001
  1.0766449e-001
  9.9922921e-002
  6.0776893e-002
  1.3160386e-002
 -1.0791910e-002
 -7.4081547e-002
 -2.6318806e-001
 -4.0062514e-001
 -5.4297162e-001
 -7.4906449e-001
 -9.0418143e-001
 -9.8867878e-001
 -1.0013291e+000
 -9.8627014e-001
 -8.9631420e-001
 -7.8495449e-001
 -7.4509327e-001
 -7.3330805e-001
 -7.3674204e-001
 -7.5129294e-001
 -7.9957701e-001
 -8.0487189e-001
 -8.0471490e-001
 -8.2762109e-001
 -8.0673728e-001
 -7.9851587e-001
 -8.1589961e-001
 -8.3299335e-001
 -8.2618428e-001
 -8.1137524e-001
 -8.2505359e-001
 -8.1482163e-001
 -8.0564537e-001
 -8.2480584e-001
 -8.2496050e-001
 -7.9668631e-001
 -7.9734547e-001
 -8.1717814e-001
 -7.9521521e-001
 -7.7504473e-001
 -7.9554094e-001
 -7.6795534e-001
 -7.4512004e-001
 -7.4558284e-001
 -7.2789815e-001
 -6.9906080e-001
 -6.8769666e-001
 -6.9642246e-001
 -6.7947424e-001
 -6.7216328e-001
 -6.7524023e-001
 -6.4936223e-001
 -6.3458769e-001
 -6.1638267e-001
 -6.1795317e-001
 -5.8916249e-001
 -5.7540125e-001
 -5.8025196e-001
 -5.3528163e-001
 -5.1116864e-001
 -5.3001329e-001
 -5.1782245e-001
 -4.9249391e-001
 -4.8663135e-001
 -4.7725977e-001
 -4.4686087e-001
 -4.2916639e-001
 -4.2808986e-001
 -3.9871330e-001
 -3.7290783e-001
 -3.7404118e-001
 -3.4513150e-001
 -3.2240008e-001
 -3.2947944e-001
 -3.1227241e-001
 -2.7897189e-001
 -2.8071933e-001
 -2.7349518e-001
 -2.4514972e-001
 -2.3693795e-001
 -2.3615905e-001
 -2.0385202e-001
 -1.7233830e-001
 -1.5631012e-001
 -1.4996549e-001
 -1.3320332e-001
 -1.5186137e-001
 -1.6192044e-001
 -1.3469032e-001
 -1.2559372e-001
 -1.3176212e-001
 -1.2599920e-001
 -1.0497398e-001
 -1.2272103e-001
 -1.2400106e-001
 -1.1015401e-001
 -1.3134294e-001
 -1.3981667e-001
 -1.2711244e-001
 -1.1654140e-001
 -1.3092027e-001
 -1.3289061e-001
 -1.1732479e-001
 -1.3003406e-001
 -1.2130979e-001
 -1.0538191e-001
 -1.0589759e-001
 -1.2954850e-001
 -1.1330447e-001
 -1.0971298e-001
 -1.3149719e-001
 -1.2046456e-001
 -1.0910077e-001
 -1.2515163e-001
 -1.2481398e-001
 -1.1284456e-001
 -1.1181424e-001
 -1.1440971e-001
 -1.0500771e-001
 -1.0602068e-001
 -1.1758321e-001
 -1.1908973e-001
 -1.0919923e-001
 -1.3049351e-001
 -1.1954662e-001
 -1.1121836e-001
 -1.2230025e-001
 -1.1909165e-001
 -1.0408462e-001
 -1.0233076e-001
 -1.0208379e-001
 -9.4230992e-002
 -8.8157862e-002
 -1.0723706e-001
 -1.1410946e-001
 -1.0151087e-001
 -1.0252907e-001
 -1.1080182e-001
 -1.0211475e-001
 -9.5031370e-002
 -9.5505430e-002
 -9.1627140e-002
 -7.2031012e-002
 -9.0117659e-002
 -9.8516987e-002
 -8.2709204e-002
 -1.0012540e-001
 -1.0493328e-001
 -9.6362371e-002
 -8.3131197e-002
 -9.1431345e-002
 -9.4023925e-002
 -7.6961264e-002
 -8.1692214e-002
 -8.4296634e-002
 -7.1660931e-002
 -7.8239976e-002
 -9.5567829e-002
 -8.3356639e-002
 -8.1116747e-002
 -9.2168160e-002
 -9.1106403e-002
 -7.6016701e-002
 -8.8493389e-002
 -9.1430989e-002
 -7.2181613e-002
 -7.7558383e-002
 -8.8211730e-002
 -7.0462656e-002
 -8.4336289e-002
 -9.9279386e-002
 -7.6313929e-002
 -8.5466191e-002
 -9.0910810e-002
 -8.5362250e-002
 -6.7809824e-002
 -8.2470464e-002
 -8.7192060e-002
 -6.4658074e-002
 -7.0127917e-002
 -9.5696461e-002
 -7.8843285e-002
 -7.2348288e-002
 -9.2199835e-002
 -9.4189372e-002
 -8.7455166e-002
 -8.4548639e-002
 -1.0001040e-001
 -8.0102429e-002
 -7.6057931e-002
 -8.1907491e-002
 -7.9774511e-002
 -6.6751308e-002
 -8.1798008e-002
 -9.3439302e-002
 -7.9146330e-002
 -8.9374543e-002
 -1.0140408e-001
 -7.5255151e-002
 -8.4547475e-002
 -1.0759337e-001
 -7.7445587e-002
 -6.5439623e-002
 -8.2605008e-002
 -8.1090643e-002
 -6.4294870e-002
 -8.2225757e-002
 -9.0531072e-002
 -7.4320519e-002
 -7.9168579e-002
 -9.3588580e-002
 -8.5051152e-002
 -7.8606859e-002
 -8.6190896e-002
 -9.8504146e-002
 -6.0938024e-002
 -7.6117325e-002
 -8.4533224e-002
 -6.9453653e-002
 -8.3588420e-002
 -1.0237636e-001
 -8.2903571e-002
 -7.1570072e-002
 -8.7873647e-002
 -8.8097021e-002
 -6.4071468e-002
 -7.2842343e-002
 -8.4095642e-002
 -6.6659342e-002
 -7.5079849e-002
 -1.0067712e-001
 -8.9264701e-002
 -8.0259941e-002
 -9.4355168e-002
 -8.8451853e-002
 -8.2721038e-002
 -9.6751688e-002
 -9.3827134e-002
 -8.0843484e-002
 -7.3123121e-002
 -9.8525751e-002
 -8.6243408e-002
 -8.3750911e-002
 -9.3699493e-002
 -8.8666516e-002
 -8.7150333e-002
 -9.0527063e-002
 -9.5762000e-002
 -7.4017806e-002
 -7.2693950e-002
 -8.8731544e-002
 -7.2019185e-002
 -6.9467378e-002
 -8.1727912e-002
 -9.6422560e-002
 -7.8198280e-002
 -9.8694009e-002
 -9.7319133e-002
 -7.0810934e-002
 -6.4458314e-002
 -8.1543474e-002
 -6.8432086e-002
 -5.1404633e-002
 -8.3910280e-002
 -8.1673828e-002
 -6.6383281e-002
 -7.7876075e-002
 -8.6975658e-002
 -6.6271696e-002
 -7.5072255e-002
 -8.7962080e-002
 -7.5099217e-002
 -6.4960714e-002
 -6.7511021e-002
 -7.5074876e-002
 -6.0374918e-002
 -8.3881177e-002
 -8.4957885e-002
 -7.1588136e-002
 -7.9162426e-002
 -9.8900769e-002
 -7.4441273e-002
 -7.5737273e-002
 -7.7034750e-002
 -6.9239864e-002
 -6.3866895e-002
 -6.7380968e-002
 -8.6510412e-002
 -6.6428262e-002
 -7.8214151e-002
 -8.4399749e-002
 -7.4955568e-002
 -5.9636313e-002
 -7.9069593e-002
 -8.0972212e-002
 -5.3205620e-002
 -6.2787124e-002
 -6.8517182e-002
 -4.1152661e-002
 -5.1766402e-002
 -8.5662890e-002
 -6.3086411e-002
 -5.1516327e-002
 -7.0145118e-002
 -7.5714957e-002
 -9.9051071e-002
 -1.1173485e-001
 -9.9780981e-002
 -1.1544076e-002
  1.4264576e-001
  3.0342789e-001
  4.0701551e-001
  4.6422096e-001
  6.6627843e-001
  8.1581021e-001
  7.7293623e-001
  6.5041931e-001
  5.3496440e-001
  3.4146457e-001
  5.0286266e-002
 -9.1972675e-002
 -1.4127473e-001
 -1.7370181e-001
 -2.4886326e-001
 -2.6038850e-001
 -1.7566187e-001
 -1.2607631e-001
 -6.5958155e-002
  1.4953885e-004
 -3.6433276e-002
 -9.6296257e-002
 -1.1717339e-001
 -1.2284044e-001
 -1.4144468e-001
 -1.5646537e-001
 -1.2959650e-001
 -1.4906660e-001
 -1.5126423e-001
 -1.3838418e-001
 -1.3899603e-001
 -1.5303448e-001
 -1.4380946e-001
 -1.3321543e-001
 -1.3880305e-001
 -1.3281866e-001
 -1.2134367e-001
 -1.3736386e-001
 -1.5104564e-001
 -1.2905733e-001
 -1.3096892e-001
 -1.4651613e-001
 -1.2377814e-001
 -1.0204341e-001
 -1.2985921e-001
 -1.1375236e-001
 -8.9049932e-002
 -9.2724647e-002
 -9.6693353e-002
 -8.7167193e-002
 -7.9646548e-002
 -9.1008469e-002
 -7.0699824e-002
 -6.4218610e-002
 -7.3127656e-002
 -5.6468271e-002
 -2.8164198e-002
 -3.7060208e-002
 -2.3871445e-002
 -1.3422691e-002
 -1.5989322e-002
 -1.2239818e-002
  3.1950003e-004
  1.9029006e-002
  6.3110377e-003
  1.0267894e-002
  3.5088968e-002
  4.5435381e-002
  4.8753132e-002
  6.6079563e-002
  6.4538916e-002
  5.4029741e-002
  6.8194371e-002
  7.2939717e-002
  7.1739306e-002
  8.2442669e-002
  1.0660544e-001
  9.5086912e-002
  9.5411429e-002
  1.2618271e-001
  1.3551088e-001
  1.3249977e-001
  1.3411404e-001
  1.2922839e-001
  1.1505214e-001
  1.3062856e-001
  1.4519021e-001
  1.3586762e-001
  1.2879280e-001
  1.4135826e-001
  1.4145503e-001
  1.2494840e-001
  1.4905601e-001
  1.4227152e-001
  1.3157749e-001
  1.2031323e-001
  1.2882306e-001
  1.1237091e-001
  8.5944134e-002
  1.0221010e-001
  1.0517554e-001
  1.0034421e-001
  1.1873678e-001
  1.3542497e-001
  1.0577281e-001
  9.7941003e-002
  1.2090289e-001
  1.0461888e-001
  1.0608456e-001
  1.1861008e-001
  1.1726224e-001
  9.8392331e-002
  1.3630478e-001
  1.4694308e-001
  1.3817373e-001
  1.5446181e-001
  1.8052276e-001
  1.8120823e-001
  1.8546676e-001
  1.8910085e-001
  1.8044139e-001
  1.9617787e-001
  2.0553501e-001
  2.1931226e-001
  2.1373501e-001
  2.3170768e-001
  2.5845896e-001
  2.6079779e-001
  2.4797452e-001
  2.4038307e-001
  2.0402527e-001
  1.6474295e-001
  1.5495150e-001
  1.3742877e-001
  1.1182460e-001
  8.2305759e-002
  5.5842216e-002
  3.0144065e-002
  2.4665951e-002
 -1.7178109e-002
 -1.8215364e-001
 -3.4227604e-001
 -4.6699870e-001
 -6.3663860e-001
 -8.3297705e-001
 -9.4918149e-001
 -9.7429464e-001
 -9.4266826e-001
 -8.7799722e-001
 -7.5604176e-001
 -6.9990567e-001
 -6.9890180e-001
 -6.9630980e-001
 -7.3500321e-001
 -7.9746899e-001
 -8.0755754e-001
 -8.1310273e-001
 -8.3165021e-001
 -8.3939389e-001
 -8.1002130e-001
 -8.1203828e-001
 -8.1856630e-001
 -8.2129258e-001
 -8.2675412e-001
 -8.4029899e-001
 -8.4223268e-001
 -8.1670550e-001
 -8.2317540e-001
 -8.2191133e-001
 -8.0488057e-001
 -7.9972507e-001
 -8.0077238e-001
 -7.8616563e-001
 -7.7360056e-001
 -7.9572289e-001
 -7.8774406e-001
 -7.6331578e-001
 -7.6094854e-001
 -7.5925099e-001
 -7.2545243e-001
 -7.1527219e-001
 -7.1684213e-001
 -6.8363650e-001
 -6.6439969e-001
 -6.7136557e-001
 -6.6213303e-001
 -6.2640348e-001
 -6.2442836e-001
 -6.2278459e-001
 -5.8511563e-001
 -5.7503157e-001
 -5.7339168e-001
 -5.4885708e-001
 -5.2342904e-001
 -5.1940190e-001
 -5.0104025e-001
 -4.6430137e-001
 -4.7539298e-001
 -4.7477049e-001
 -4.3608906e-001
 -4.2491178e-001
 -4.2053038e-001
 -3.8722169e-001
 -3.5521277e-001
 -3.5196347e-001
 -3.3526448e-001
 -2.9875019e-001
 -2.9878136e-001
 -2.9114178e-001
 -2.6823194e-001
 -2.8151319e-001
 -2.7598181e-001
 -2.4281443e-001
 -2.1569845e-001
 -1.9727639e-001
 -1.7865074e-001
 -1.5069724e-001
 -1.6571601e-001
 -1.8449866e-001
 -1.6333608e-001
 -1.5010142e-001
 -1.6794574e-001
 -1.4300938e-001
 -1.3488654e-001
 -1.5665090e-001
 -1.5207642e-001
 -1.2879795e-001
 -1.3439833e-001
 -1.4431064e-001
 -1.2591930e-001
 -1.4124770e-001
 -1.6401168e-001
 -1.4239833e-001
 -1.3536291e-001
 -1.4957952e-001
 -1.3696713e-001
 -1.1486730e-001
 -1.2167945e-001
 -1.2490502e-001
 -1.1076413e-001
 -1.3205066e-001
 -1.6065461e-001
 -1.4938374e-001
 -1.2903942e-001
 -1.4805313e-001
 -1.3606130e-001
 -1.2128807e-001
 -1.3457185e-001
 -1.3214549e-001
 -1.0938265e-001
 -1.1573711e-001
 -1.3126775e-001
 -1.1525415e-001
 -1.1366919e-001
 -1.3990116e-001
 -1.2301839e-001
 -1.0643559e-001
 -1.2596585e-001
 -1.1966514e-001
 -1.1360191e-001
 -1.1360317e-001
 -1.1566032e-001
 -1.0813412e-001
 -1.0433961e-001
 -1.2684625e-001
 -1.2634970e-001
 -1.0719448e-001
 -1.0169880e-001
 -1.1727341e-001
 -9.0626940e-002
 -9.5907915e-002
 -1.0583542e-001
 -8.7358928e-002
 -8.4169244e-002
 -1.1016729e-001
 -1.0110119e-001
 -9.0895904e-002
 -1.0010390e-001
 -1.0174197e-001
 -9.4232125e-002
 -9.1252232e-002
 -1.0534064e-001
 -8.6284440e-002
 -8.0000905e-002
 -1.0956273e-001
 -1.0374362e-001
 -8.0315683e-002
 -1.0084574e-001
 -1.1012215e-001
 -8.3438037e-002
 -8.2467426e-002
 -9.8170918e-002
 -8.0868450e-002
 -8.6370799e-002
 -9.8043384e-002
 -7.5233983e-002
 -5.4540667e-002
 -7.2416931e-002
 -8.4751844e-002
 -7.5450440e-002
 -8.0624727e-002
 -9.7410178e-002
 -9.1632111e-002
 -7.3378704e-002
 -9.5182845e-002
 -9.4250381e-002
 -6.8098047e-002
 -7.6086035e-002
 -8.1368861e-002
 -6.9145735e-002
 -8.0526914e-002
 -9.0853543e-002
 -7.5382077e-002
 -7.6734941e-002
 -8.6432935e-002
 -7.6929491e-002
 -6.5759231e-002
 -8.2021930e-002
 -8.2273781e-002
 -5.9890236e-002
 -6.2527688e-002
 -9.3326599e-002
 -7.6924449e-002
 -7.5837039e-002
 -1.0102814e-001
 -9.7740552e-002
 -6.5274949e-002
 -8.8262646e-002
 -9.1395227e-002
 -6.5137338e-002
 -7.0559409e-002
 -8.0295615e-002
 -7.7580638e-002
 -7.2398850e-002
 -9.8256815e-002
 -9.0097183e-002
 -7.9254092e-002
 -8.7683573e-002
 -9.9321665e-002
 -8.2863152e-002
 -8.2251015e-002
 -9.9164390e-002
 -7.3673596e-002
 -6.8076911e-002
 -9.5438248e-002
 -8.4960840e-002
 -6.3837732e-002
 -8.6239824e-002
 -8.9102546e-002
 -6.8162539e-002
 -7.3666497e-002
 -7.8685528e-002
 -6.9420471e-002
 -6.0974663e-002
 -8.4065370e-002
 -8.7694328e-002
 -7.4412689e-002
 -9.0840704e-002
 -8.5963291e-002
 -7.3173588e-002
 -8.8907420e-002
 -8.8862448e-002
 -7.4393591e-002
 -6.1682537e-002
 -6.8321019e-002
 -6.7903040e-002
 -6.1855521e-002
 -8.6435464e-002
 -9.5663963e-002
 -7.1116821e-002
 -8.3593274e-002
 -9.0280036e-002
 -8.1420742e-002
 -6.0090656e-002
 -7.3549254e-002
 -6.3138067e-002
 -5.7444322e-002
 -7.5551276e-002
 -8.3957040e-002
 -6.4710381e-002
 -6.9164280e-002
 -9.0769371e-002
 -6.7493460e-002
 -6.7528904e-002
 -7.6309020e-002
 -5.8084894e-002
 -4.5554131e-002
 -6.7747733e-002
 -7.2021269e-002
 -6.2053144e-002
 -6.4024907e-002
 -8.6060594e-002
 -6.1775580e-002
 -5.3766114e-002
 -6.8728997e-002
 -6.3581082e-002
 -4.4710006e-002
 -5.0182287e-002
 -5.2711191e-002
 -4.4505511e-002
 -5.8082562e-002
 -7.4521412e-002
 -7.1852849e-002
 -7.2861306e-002
 -7.5012835e-002
 -7.1215174e-002
 -5.1582074e-002
 -7.2141916e-002
 -7.4516214e-002
 -4.8534525e-002
 -6.0746163e-002
 -8.0619890e-002
 -7.5780080e-002
 -6.2891772e-002
 -9.3520104e-002
 -6.9606382e-002
 -5.3632855e-002
 -6.7305556e-002
 -6.9595417e-002
 -5.6765353e-002
 -4.3626743e-002
 -7.3134974e-002
 -5.8380723e-002
 -5.2684214e-002
 -8.7327200e-002
 -1.1378194e-001
 -8.7458539e-002
 -9.4270914e-002
 -2.7751625e-002
  1.8268464e-001
  3.4036605e-001
  3.9791126e-001
  5.1820577e-001
  7.5934284e-001
  7.9957460e-001
  7.1608806e-001
  6.2253689e-001
  4.3764296e-001
  1.4200985e-001
 -6.0561160e-002
 -1.2858027e-001
 -1.7915482e-001
 -2.2464068e-001
 -2.4581658e-001
 -2.1783626e-001
 -1.5500574e-001
 -5.9406627e-002
 -2.0503425e-002
 -4.8351011e-002
 -9.1211857e-002
 -1.2796848e-001
 -1.5765387e-001
 -1.1729292e-001
 -1.0354878e-001
 -1.3560234e-001
 -1.3201421e-001
 -1.2010061e-001
 -1.4543585e-001
 -1.3974472e-001
 -1.2510140e-001
 -1.3457162e-001
 -1.6016364e-001
 -1.3380872e-001
 -1.2059682e-001
 -1.3128315e-001
 -1.3188188e-001
 -1.1336215e-001
 -1.3068062e-001
 -1.4329721e-001
 -1.2013908e-001
 -1.1001120e-001
 -1.3663065e-001
 -1.0820500e-001
 -8.9322484e-002
 -1.1248650e-001
 -9.3294825e-002
 -7.5352317e-002
 -8.5297346e-002
 -8.2674837e-002
 -6.6653183e-002
 -5.6662450e-002
 -7.9494282e-002
 -5.1490190e-002
 -3.7466450e-002
 -4.8494876e-002
 -3.6472236e-002
 -1.4868712e-002
 -1.3377902e-002
 -2.2174195e-002
  6.1983525e-003
  8.6554103e-003
 -1.1033431e-002
  1.7119154e-002
  2.7411406e-002
  1.6459005e-002
  4.5374520e-002
  6.3356305e-002
  5.1596138e-002
  6.4411753e-002
  9.1774685e-002
  8.7960691e-002
  7.6792470e-002
  8.9989181e-002
  9.8617139e-002
  9.0392280e-002
  9.5883623e-002
  1.1951885e-001
  9.0208244e-002
  1.0231168e-001
  1.3781767e-001
  1.3211221e-001
  1.1172047e-001
  1.2841085e-001
  1.2666143e-001
  1.0537690e-001
  1.1636483e-001
  1.2494813e-001
  1.0120657e-001
  1.0436941e-001
  1.2393037e-001
  1.1988456e-001
  1.0880277e-001
  1.1613762e-001
  1.1591535e-001
  8.0546742e-002
  9.1855832e-002
  1.0889083e-001
  9.1303126e-002
  9.7937976e-002
  1.1786579e-001
  1.1110968e-001
  1.0424127e-001
  1.1867991e-001
  1.2907477e-001
  1.0123416e-001
  1.1595441e-001
  1.3542107e-001
  1.3458983e-001
  1.4420918e-001
  1.6905331e-001
  1.7189154e-001
  1.6558746e-001
  1.8880574e-001
  2.0208171e-001
  1.9300830e-001
  2.1489108e-001
  2.2878064e-001
  2.1461615e-001
  2.2735194e-001
  2.5456721e-001
  2.5880672e-001
  2.3392695e-001
  2.2166938e-001
  2.0319881e-001
  1.5088304e-001
  1.3358911e-001
  1.3294496e-001
  6.8047646e-002
  4.3663213e-002
  7.1619603e-002
  4.5413677e-002
 -5.4830574e-002
 -1.9908826e-001
 -3.2406745e-001
 -5.0829233e-001
 -6.9747526e-001
 -8.2411026e-001
 -8.7349061e-001
 -8.4860981e-001
 -7.9151006e-001
 -7.0839426e-001
 -6.5130824e-001
 -6.0994218e-001
 -6.4386104e-001
 -7.0984022e-001
 -7.5157846e-001
 -7.6485924e-001
 -8.1574256e-001
 -8.3154879e-001
 -8.1873915e-001
 -8.2331232e-001
 -8.3115151e-001
 -8.1578522e-001
 -8.1298953e-001
 -8.3036571e-001
 -8.1327047e-001
 -7.9181297e-001
 -8.1302586e-001
 -8.1436429e-001
 -7.9932776e-001
 -7.9885109e-001
 -8.0565341e-001
 -7.8187420e-001
 -7.7345519e-001
 -7.7593149e-001
 -7.6060074e-001
 -7.1876638e-001
 -7.4257577e-001
 -7.5066560e-001
 -7.1174527e-001
 -7.1091317e-001
 -7.1759514e-001
 -6.8980996e-001
 -6.6095162e-001
 -6.7538065e-001
 -6.5497164e-001
 -6.2998912e-001
 -6.2860921e-001
 -6.1813402e-001
 -5.7559924e-001
 -5.8657420e-001
 -5.8552448e-001
 -5.5503658e-001
 -5.3782024e-001
 -5.3465115e-001
 -5.0809455e-001
 -4.8354553e-001
 -4.8584661e-001
 -4.5844390e-001
 -4.1892380e-001
 -4.2303452e-001
 -4.2404231e-001
 -3.9142976e-001
 -3.7562185e-001
 -3.7729652e-001
 -3.5624380e-001
 -3.1392412e-001
 -3.1647903e-001
 -3.1352088e-001
 -2.7951087e-001
 -2.8575183e-001
 -2.7860812e-001
 -2.2667960e-001
 -2.1806490e-001
 -2.1748685e-001
 -2.0157068e-001
 -1.7628978e-001
 -1.9691301e-001
 -2.0070555e-001
 -1.6426136e-001
 -1.5049863e-001
 -1.6205287e-001
 -1.4124011e-001
 -1.3543043e-001
 -1.7362821e-001
 -1.6073802e-001
 -1.4602375e-001
 -1.6048682e-001
 -1.5414159e-001
 -1.3038281e-001
 -1.4786185e-001
 -1.5754920e-001
 -1.2681165e-001
 -1.1357638e-001
 -1.2987017e-001
 -1.2087769e-001
 -1.2123649e-001
 -1.3230668e-001
 -1.3015778e-001
 -1.1294089e-001
 -1.2547183e-001
 -1.3088026e-001
 -1.1709820e-001
 -9.8380192e-002
 -1.1007333e-001
 -9.5441385e-002
 -8.3737718e-002
 -1.0893582e-001
 -1.2163887e-001
 -9.2393946e-002
 -1.1657239e-001
 -1.2861820e-001
 -1.0403194e-001
 -1.0676167e-001
 -1.1184529e-001
 -1.0315777e-001
 -8.1549927e-002
 -1.1039641e-001
 -1.1521063e-001
 -8.6416187e-002
 -1.1174354e-001
 -1.1457670e-001
 -9.4887250e-002
 -9.5987809e-002
 -1.0795468e-001
 -9.4917384e-002
 -7.6288231e-002
 -8.8633127e-002
 -8.7702321e-002
 -8.5508286e-002
 -8.4076932e-002
 -1.0292047e-001
 -8.3162487e-002
 -7.4648711e-002
 -9.5687334e-002
 -9.4908726e-002
 -7.4091464e-002
 -8.7704260e-002
 -7.9650547e-002
 -5.9982920e-002
 -7.3284378e-002
 -9.5125016e-002
 -9.1276228e-002
 -7.8561143e-002
 -1.0058503e-001
 -8.5284716e-002
 -6.9657950e-002
 -8.8364690e-002
 -9.1736881e-002
 -6.7056287e-002
 -7.7340363e-002
 -9.1768611e-002
 -6.9422326e-002
 -7.7661906e-002
 -9.1742433e-002
 -7.6622137e-002
 -6.9303132e-002
 -8.3969239e-002
 -8.1589148e-002
 -6.2433586e-002
 -6.9477620e-002
 -7.9033343e-002
 -6.7510598e-002
 -6.9220927e-002
 -9.1568450e-002
 -7.5025657e-002
 -5.8321218e-002
 -7.4144404e-002
 -8.3961574e-002
 -5.6234679e-002
 -6.7685345e-002
 -9.2329053e-002
 -6.2715739e-002
 -7.4567140e-002
 -9.3464368e-002
 -7.9623322e-002
 -6.3614883e-002
 -9.4599590e-002
 -1.0002826e-001
 -7.8698045e-002
 -7.7226402e-002
 -8.5485711e-002
 -6.2797513e-002
 -7.0594158e-002
 -8.7043328e-002
 -8.3423915e-002
 -7.9379582e-002
 -9.9857687e-002
 -9.4992164e-002
 -6.8604272e-002
 -8.6414151e-002
 -9.2667332e-002
 -6.5711497e-002
 -6.5253705e-002
 -9.2640084e-002
 -8.4382942e-002
 -7.1251345e-002
 -8.1660022e-002
 -7.9425215e-002
 -6.7283962e-002
 -7.2270932e-002
 -8.6688973e-002
 -5.7985324e-002
 -5.7762102e-002
 -7.6120290e-002
 -5.7074889e-002
 -4.6505882e-002
 -8.3587804e-002
 -8.8365685e-002
 -6.0808975e-002
 -7.6449325e-002
 -9.1781190e-002
 -8.3746942e-002
 -6.8768871e-002
 -8.1840657e-002
 -7.3741411e-002
 -5.5203619e-002
 -9.4207443e-002
 -9.5961139e-002
 -6.9829638e-002
 -8.5942126e-002
 -9.6611250e-002
 -7.8476596e-002
 -6.5155670e-002
 -7.8341957e-002
 -6.7929727e-002
 -5.6839368e-002
 -7.6266654e-002
 -7.9458557e-002
 -6.4469124e-002
 -7.1205880e-002
 -7.9906726e-002
 -6.9621802e-002
 -6.7833884e-002
 -7.1470177e-002
 -6.2370964e-002
 -4.8236238e-002
 -7.5746979e-002
 -8.2333307e-002
 -6.1548986e-002
 -7.5551233e-002
 -9.3154670e-002
 -7.5908611e-002
 -6.1163803e-002
 -8.1438690e-002
 -5.9825165e-002
 -4.3361565e-002
 -6.7122977e-002
 -6.4982412e-002
 -6.3380413e-002
 -8.4866985e-002
 -8.0542603e-002
 -5.7133439e-002
 -6.8173697e-002
 -7.5415032e-002
 -7.1146424e-002
 -6.1977892e-002
 -7.1390237e-002
 -6.9483524e-002
 -5.2548335e-002
 -6.7484055e-002
 -7.7586359e-002
 -6.4614676e-002
 -6.5871441e-002
 -8.1951947e-002
 -6.8243841e-002
 -6.0766850e-002
 -7.5241719e-002
 -6.2615430e-002
 -4.8349005e-002
 -6.8659395e-002
 -7.2328181e-002
 -6.2140993e-002
 -6.8818611e-002
 -7.9839160e-002
 -7.2831328e-002
 -4.6550679e-002
 -5.2837364e-002
 -4.5426973e-002
 -2.3561499e-002
 -4.7515466e-002
 -8.9377531e-002
 -1.1277717e-001
 -1.1490215e-001
 -1.1383805e-001
  3.8515912e-003
  1.9913136e-001
  3.3364873e-001
  4.0118450e-001
  4.9233448e-001
  6.8362626e-001
  8.1424808e-001
  7.7686973e-001
  6.8703478e-001
  5.4046583e-001
  2.9634623e-001
 -1.0767950e-002
 -1.6513484e-001
 -1.8850910e-001
 -2.0328651e-001
 -2.6740509e-001
 -2.4921006e-001
 -1.7691653e-001
 -1.0871730e-001
 -3.8611188e-002
 -2.1951565e-002
 -7.4995611e-002
 -1.4163195e-001
 -1.5831565e-001
 -1.3420636e-001
 -1.4929654e-001
 -1.4395100e-001
 -1.2989819e-001
 -1.4420565e-001
 -1.3991031e-001
 -1.2493499e-001
 -1.0820172e-001
 -1.4518368e-001
 -1.4111942e-001
 -1.2303341e-001
 -1.3438729e-001
 -1.3850905e-001
 -1.2508805e-001
 -1.2526915e-001
 -1.3079935e-001
 -1.0426273e-001
 -9.8789828e-002
 -1.1812677e-001
 -1.0569366e-001
 -9.3296673e-002
 -1.1067819e-001
 -1.0124677e-001
 -8.8855768e-002
 -9.0559687e-002
 -9.1487806e-002
 -7.0646049e-002
 -5.0355081e-002
 -6.0015892e-002
 -4.8892920e-002
 -3.0379648e-002
 -3.2665020e-002
 -4.1202542e-002
 -1.9725753e-002
 -1.1717363e-002
 -2.0509512e-002
  1.2205254e-003
  1.7688554e-002
  1.9018793e-002
  1.7288424e-002
  3.7909538e-002
  2.6327640e-002
  2.4622780e-002
  4.9138475e-002
  5.6477136e-002
  5.1765914e-002
  6.0826507e-002
  8.2560474e-002
  8.1658958e-002
  8.5859936e-002
  1.1577932e-001
  9.9580248e-002
  1.0571520e-001
  1.2270767e-001
  1.1004850e-001
  9.8357049e-002
  1.0512393e-001
  1.3257407e-001
  1.2261341e-001
  1.2972250e-001
  1.3397137e-001
  1.4015554e-001
  1.3972294e-001
  1.5740674e-001
  1.5184511e-001
  1.2478818e-001
  1.3507380e-001
  1.3929412e-001
  1.1858058e-001
  1.1970694e-001
  1.3290609e-001
  1.2594170e-001
  1.1286540e-001
  1.2081962e-001
  1.2078747e-001
  1.0274153e-001
  1.1029557e-001
  1.0404507e-001
  9.9123935e-002
  9.6836187e-002
  1.1985678e-001
  1.1079491e-001
  9.9064155e-002
  1.3069692e-001
  1.3618065e-001
  1.2445013e-001
  1.3609126e-001
  1.3152147e-001
  1.2461584e-001
  1.3653786e-001
  1.5750401e-001
  1.6426044e-001
  1.6272561e-001
  1.9475779e-001
  2.0183061e-001
  1.9645347e-001
  2.1643846e-001
  2.3756014e-001
  2.1173565e-001
  2.1931371e-001
  2.5321837e-001
  2.5475581e-001
  2.5703334e-001
  2.7485542e-001
  2.5688601e-001
  2.1557798e-001
  1.9885283e-001
  1.8894273e-001
  2.0422884e-001
  2.0413607e-001
  1.5868924e-001
  1.4396114e-001
  1.3291037e-001
  9.0717084e-002
 -1.5397384e-002
 -1.7580323e-001
 -3.0270202e-001
 -4.5780832e-001
 -6.8069365e-001
 -7.8885795e-001
 -8.1231393e-001
 -8.4011533e-001
 -8.3519797e-001
 -7.6319781e-001
 -6.7195044e-001
 -6.1543019e-001
 -5.9172839e-001
 -6.3636119e-001
 -7.0758095e-001
 -7.5433287e-001
 -7.9379210e-001
 -8.3203357e-001
 -8.3392819e-001
 -8.1310176e-001
 -8.2335452e-001
 -8.4983536e-001
 -8.3601124e-001
 -8.3191033e-001
 -8.5198229e-001
 -8.4375708e-001
 -8.2256736e-001
 -8.3765340e-001
 -8.4154999e-001
 -8.1397144e-001
 -8.2550198e-001
 -8.2505454e-001
 -8.0649438e-001
 -8.0475451e-001
 -8.1909631e-001
 -8.0454558e-001
 -7.8064765e-001
 -7.8819037e-001
 -7.7977174e-001
 -7.5878396e-001
 -7.6493137e-001
 -7.6087698e-001
 -7.1740716e-001
 -7.0963348e-001
 -7.2473263e-001
 -7.0662016e-001
 -6.8232717e-001
 -6.7458046e-001
 -6.5193859e-001
 -6.0821757e-001
 -6.0254911e-001
 -6.0931828e-001
 -5.6366134e-001
 -5.4481731e-001
 -5.5727802e-001
 -5.3914173e-001
 -5.1488528e-001
 -5.0770933e-001
 -5.1192061e-001
 -5.0732172e-001
 -4.9791113e-001
 -4.8422209e-001
 -4.5117162e-001
 -4.2218712e-001
 -4.2269455e-001
 -4.1603828e-001
 -3.9817008e-001
 -4.0937303e-001
 -3.9113688e-001
 -3.7119905e-001
 -3.7299175e-001
 -3.8076747e-001
 -3.3414221e-001
 -3.1165164e-001
 -3.1200996e-001
 -3.0170293e-001
 -2.8371545e-001
 -2.7021258e-001
 -2.7330204e-001
 -2.3741436e-001
 -2.3315596e-001
 -2.4758546e-001
 -2.3629532e-001
 -2.1545436e-001
 -2.1943215e-001
 -2.0458610e-001
 -1.7251950e-001
 -1.8733459e-001
 -1.8968163e-001
 -1.6603477e-001
 -1.5637249e-001
 -1.6344071e-001
 -1.4978493e-001
 -1.3835480e-001
 -1.4984087e-001
 -1.3627341e-001
 -1.2544454e-001
 -1.2875809e-001
 -1.3575754e-001
 -9.8331292e-002
 -1.0591203e-001
 -1.1716248e-001
 -1.0322601e-001
 -1.0326310e-001
 -1.0961821e-001
 -1.0870962e-001
 -9.7906768e-002
 -1.0829842e-001
 -9.8144511e-002
 -8.2440007e-002
 -8.2410704e-002
 -9.6544325e-002
 -7.5064305e-002
 -7.1574339e-002
 -8.2980784e-002
 -9.8802062e-002
 -8.6493550e-002
 -9.3522081e-002
 -9.6196033e-002
 -7.6575856e-002
 -7.4551594e-002
 -8.3759110e-002
 -8.4732081e-002
 -6.2276138e-002
 -8.4151422e-002
 -7.9460443e-002
 -6.4606124e-002
 -7.3685777e-002
 -8.7240794e-002
 -7.7371568e-002
 -8.0171259e-002
 -8.6115026e-002
 -6.8514425e-002
 -6.0839151e-002
 -7.0323260e-002
 -6.1746835e-002
 -5.1874866e-002
 -6.3007777e-002
 -7.1671613e-002
 -5.8727637e-002
 -7.6385263e-002
 -8.0111204e-002
 -6.5521706e-002
 -6.8338533e-002
 -7.2781821e-002
 -6.0432408e-002
 -5.0940650e-002
 -6.4952316e-002
 -7.2515224e-002
 -5.6700241e-002
 -6.2447684e-002
 -8.1213732e-002
 -6.8958886e-002
 -6.1539292e-002
 -8.2794243e-002
 -7.0199396e-002
 -4.8840248e-002
 -6.2150058e-002
 -6.9366946e-002
 -5.7598056e-002
 -5.8062469e-002
 -6.5703763e-002
 -5.6821303e-002
 -6.4340496e-002
 -7.5349083e-002
 -7.8014038e-002
 -5.3720831e-002
 -5.5447677e-002
 -5.7260574e-002
 -3.7835513e-002
 -4.3880791e-002
 -5.6501281e-002
 -4.5253917e-002
 -3.8370485e-002
 -5.7106906e-002
 -6.2996931e-002
 -5.7627007e-002
 -6.6315056e-002
 -6.5530550e-002
 -4.2085290e-002
 -4.6545862e-002
 -6.1643672e-002
 -5.8589585e-002
 -4.7290144e-002
 -6.5322676e-002
 -6.0264528e-002
 -5.6889694e-002
 -7.0268209e-002
 -7.7876863e-002
 -5.5124053e-002
 -5.6114333e-002
 -7.6141479e-002
 -5.3554009e-002
 -4.6254534e-002
 -7.0314934e-002
 -5.4538531e-002
 -3.5770393e-002
 -6.1004621e-002
 -6.8078622e-002
 -5.7442062e-002
 -6.3690988e-002
 -6.6020202e-002
 -5.9133629e-002
 -4.1222404e-002
 -5.4015470e-002
 -4.9221337e-002
 -2.9965734e-002
 -6.0324040e-002
 -6.2549723e-002
 -3.9139877e-002
 -5.7327326e-002
 -6.4696991e-002
 -4.3863814e-002
 -3.5113924e-002
 -5.3355047e-002
 -4.7877808e-002
 -2.9057554e-002
 -4.3013229e-002
 -4.4113318e-002
 -2.7136275e-002
 -3.9899895e-002
 -6.5427379e-002
 -4.5138300e-002
 -3.6415028e-002
 -6.3107704e-002
 -4.0734311e-002
 -2.4516740e-002
 -4.3855931e-002
 -5.0599155e-002
 -3.1041551e-002
 -3.8645380e-002
 -4.3155248e-002
 -3.5078200e-002
 -4.0807684e-002
 -5.5698378e-002
 -4.7274096e-002
 -3.4876265e-002
 -5.1063757e-002
 -4.3959323e-002
 -2.0559650e-002
 -3.4610116e-002
 -4.7004203e-002
 -2.7428676e-002
 -2.8694214e-002
 -5.3351396e-002
 -4.5454527e-002
 -3.7094547e-002
 -4.6577101e-002
 -4.7275380e-002
 -1.5987362e-002
 -2.7099810e-002
 -3.5231440e-002
 -1.9932829e-002
 -2.4948470e-002
 -3.3666927e-002
 -3.1149501e-002
 -2.4894581e-002
 -3.8974217e-002
 -4.6142080e-002
 -3.1482907e-002
 -2.5776707e-002
 -3.0009009e-002
 -1.4979654e-002
 -1.5500844e-002
 -4.3846460e-002
 -3.9371115e-002
 -2.3862253e-002
 -4.0811350e-002
 -5.6451711e-002
 -3.0777157e-002
 -2.4912355e-002
 -4.4860872e-002
 -3.7003502e-002
 -1.6807868e-002
 -3.9958680e-002
 -3.0428955e-002
 -9.8993073e-003
 -2.7218217e-002
 -3.5013618e-002
 -1.9640709e-002
 -3.1158485e-002
 -6.3126122e-002
 -4.1304078e-002
 -3.4052034e-002
 -2.8571347e-002
 -6.2203656e-003
  6.7519044e-003
 -1.8624046e-003
 -6.6665308e-003
 -1.7068596e-003
 -3.1582465e-002
 -8.0869546e-002
 -7.4522251e-002
 -7.2996630e-002
 -6.2389864e-002
  7.4592312e-002
  2.4617150e-001
  3.7601095e-001
  4.2500315e-001
  5.3666929e-001
  7.5773183e-001
  8.3215889e-001
  7.6983728e-001
  6.6815547e-001
  5.1077278e-001
  2.6427924e-001
 -1.2287633e-002
 -1.4700644e-001
 -1.6146555e-001
 -1.7698833e-001
 -2.5571408e-001
 -2.3645754e-001
 -1.6700969e-001
 -9.9915382e-002
 -3.4405680e-002
 -3.6232858e-003
 -2.4728974e-002
 -9.6706420e-002
 -1.0728312e-001
 -8.6979413e-002
 -8.5914296e-002
 -1.0024270e-001
 -8.8603786e-002
 -8.0699913e-002
 -1.0121061e-001
 -9.5052771e-002
 -8.3620423e-002
 -1.0512889e-001
 -1.0315587e-001
 -7.6405092e-002
 -8.5253265e-002
 -9.6024648e-002
 -7.9159550e-002
 -7.7886831e-002
 -9.2149889e-002
 -7.8283908e-002
 -6.4331238e-002
 -7.8470365e-002
 -8.9183019e-002
 -7.4566165e-002
 -6.7501463e-002
 -7.7514209e-002
 -4.2934484e-002
 -3.7236788e-002
 -3.9783315e-002
 -2.8755771e-002
 -1.7875156e-002
 -2.4609828e-002
 -1.9948288e-002
  5.1933635e-003
 -9.0904047e-003
 -1.7820933e-002
  6.6127393e-003
  2.2791513e-002
  2.1096608e-002
  4.0736692e-002
  6.1216656e-002
  5.0749128e-002
  5.6811896e-002
  8.2750245e-002
  6.2958773e-002
  5.7374006e-002
  7.0549022e-002
  7.4382036e-002
  7.1527864e-002
  8.8292053e-002
  1.2111473e-001
  1.0892992e-001
  1.0995575e-001
  1.3181597e-001
  1.3247811e-001
  1.2940072e-001
  1.4652075e-001
  1.3856882e-001
  1.3038802e-001
  1.5281548e-001
  1.6436805e-001
  1.5320349e-001
  1.7559768e-001
  1.8004186e-001
  1.7979681e-001
  1.6952408e-001
  1.9115692e-001
  1.9340799e-001
  1.6952427e-001
  1.7097159e-001
  1.7932165e-001
  1.7523417e-001
  1.7053742e-001
  1.9744600e-001
  1.8510157e-001
  1.6100546e-001
  1.8073298e-001
  1.8355724e-001
  1.4990538e-001
  1.5759744e-001
  1.6735034e-001
  1.4687493e-001
  1.4042155e-001
  1.6105173e-001
  1.7134902e-001
  1.5062302e-001
  1.5719306e-001
  1.4880423e-001
  1.4453906e-001
  1.6547882e-001
  1.7982191e-001
  1.6111294e-001
  1.5792211e-001
  1.8636021e-001
  1.7877094e-001
  1.7830373e-001
  2.1235738e-001
  2.1940367e-001
  1.9667481e-001
  2.2986688e-001
  2.4618685e-001
  2.3602330e-001
  2.4660661e-001
  2.5666520e-001
  2.5562056e-001
  2.6045613e-001
  3.0260639e-001
  3.0686840e-001
  2.9152635e-001
  2.8070230e-001
  2.5587796e-001
  2.2827915e-001
  2.3785676e-001
  2.9913996e-001
  2.8044130e-001
  2.5743623e-001
  2.6454254e-001
  2.3847152e-001
  1.5656681e-001
  5.8793467e-002
 -9.2021928e-002
 -2.9343185e-001
 -4.6384373e-001
 -6.2023745e-001
 -7.5088281e-001
 -8.5654843e-001
 -8.7664773e-001
 -8.3320843e-001
 -7.8015122e-001
 -6.4575401e-001
 -5.4303158e-001
 -5.0114541e-001
 -4.9306387e-001
 -4.9658773e-001
 -5.3322081e-001
 -6.2115565e-001
 -6.4985169e-001
 -6.7866827e-001
 -7.2313938e-001
 -7.0902590e-001
 -6.9552001e-001
 -7.0420883e-001
 -7.1044733e-001
 -7.0606041e-001
 -7.1261840e-001
 -7.2474222e-001
 -6.9357920e-001
 -6.9181103e-001
 -7.1096979e-001
 -6.9389285e-001
 -6.9341319e-001
 -7.0262967e-001
 -7.0259519e-001
 -6.6422545e-001
 -6.6842206e-001
 -6.7597003e-001
 -6.4429705e-001
 -6.3692540e-001
 -6.4217399e-001
 -6.2698352e-001
 -6.0684481e-001
 -6.1480603e-001
 -6.2002091e-001
 -5.8616422e-001
 -5.7103818e-001
 -5.8023722e-001
 -5.3870823e-001
 -5.4139605e-001
 -5.3546679e-001
 -5.0525840e-001
 -4.8317200e-001
 -4.8328548e-001
 -4.8130562e-001
 -4.5225834e-001
 -4.6565263e-001
 -4.6256641e-001
 -4.2866266e-001
 -4.0854881e-001
 -3.8956061e-001
 -3.5059848e-001
 -3.3194622e-001
 -3.3737000e-001
 -3.2504399e-001
 -2.9150732e-001
 -2.9732980e-001
 -2.9575219e-001
 -2.6444976e-001
 -2.3031039e-001
 -2.3499173e-001
 -2.2545897e-001
 -2.0734999e-001
 -2.1735671e-001
 -2.0104368e-001
 -1.6866773e-001
 -1.7369791e-001
 -1.7131069e-001
 -1.5168417e-001
 -1.4354957e-001
 -1.4844715e-001
 -1.2322093e-001
 -9.9034819e-002
 -1.1697836e-001
 -1.2088400e-001
 -8.6058192e-002
 -9.3136950e-002
 -1.0200484e-001
 -7.8319902e-002
 -8.2805660e-002
 -1.0713736e-001
 -8.9846635e-002
 -6.5559496e-002
 -7.6989007e-002
 -6.2364383e-002
 -4.0863574e-002
 -5.1984941e-002
 -5.4214766e-002
 -3.3558148e-002
 -2.8298728e-002
 -5.8137204e-002
 -4.9977921e-002
 -3.7098053e-002
 -4.8238409e-002
 -4.4660788e-002
 -1.6844289e-002
 -2.2328647e-002
 -3.9078666e-002
 -1.8481872e-002
 -3.4829447e-002
 -3.2980049e-002
 -2.3091096e-002
 -1.8250967e-002
 -4.9934488e-002
 -3.4389797e-002
 -1.4676796e-003
 -2.2490608e-002
 -2.7059050e-002
  1.0897203e-003
 -9.3928048e-003
 -3.1168049e-002
 -1.1148563e-002
 -8.4246739e-003
 -2.3588068e-002
 -1.6619489e-002
  1.6421860e-002
 -4.0888165e-003
 -2.0208317e-003
  1.6187544e-002
  1.4680579e-002
 -2.2992250e-003
  1.4309963e-002
  8.9615171e-003
 -4.4453653e-003
 -1.5553170e-005
  3.6083095e-003
  4.0691454e-003
 -1.9649277e-003
  2.8842282e-002
  2.7594530e-002
  7.4134909e-003
  3.1092189e-002
  3.2789505e-002
  4.7079722e-003
  8.4411683e-003
  1.3367111e-002
  7.6310934e-003
  1.1017337e-002
  1.6549367e-002
  1.9542114e-002
  9.6790671e-003
  2.2854902e-002
  4.0112042e-002
  1.5792711e-002
  1.7995001e-002
  2.6898787e-002
  1.3949123e-002
  7.2341337e-003
  2.2290316e-002
  2.9451649e-002
  1.4702000e-002
  3.2424676e-002
  3.7789753e-002
  1.0135020e-002
  7.5646342e-003
  3.4878120e-002
  1.9068343e-002
  8.5960943e-003
  2.3125961e-002
  1.9070932e-002
  1.4702163e-002
  3.6555707e-002
  4.0839726e-002
  2.4080075e-002
  1.8757220e-002
  4.2550494e-002
  2.0081923e-002
  1.6749191e-003
  2.4671774e-002
  1.7751157e-002
 -1.2781839e-002
  5.0548343e-004
  3.2139113e-002
  1.4653466e-002
  2.8304707e-002
  4.2500790e-002
  2.4153500e-002
  2.1799274e-002
  3.6329688e-002
  2.3875757e-002
  7.4201114e-003
  1.5453614e-002
  2.8661303e-002
  1.1926202e-002
  1.5074982e-002
  3.6601757e-002
  1.8864090e-002
  1.4302612e-002
  2.4391551e-002
  1.4122251e-002
  1.5609527e-003
  1.9559601e-002
  2.1794716e-002
 -5.2492394e-004
  7.6161167e-003
  4.4309608e-002
  3.7303377e-002
  3.1695486e-002
  4.5767189e-002
  4.0359644e-002
  1.5075228e-002
  1.9615438e-002
  3.0009173e-002
  1.6342526e-002
  2.5001746e-002
  4.5782256e-002
  3.0723500e-002
  1.9436799e-002
  3.7644460e-002
  4.4944431e-002
  2.5539290e-002
  4.5316235e-002
  3.4743674e-002
  1.1436808e-002
  1.3503629e-002
  4.4827456e-002
  2.6734905e-002
  3.0175887e-002
  4.6066947e-002
  2.9569444e-002
  2.5937167e-002
  3.4060654e-002
  4.2607274e-002
  2.2094647e-002
  2.4954888e-002
  3.5948952e-002
  2.0634293e-002
  1.8832380e-002
  5.2841302e-002
  4.6336537e-002
  3.5378003e-002
  4.7536066e-002
  4.5313834e-002
  3.4330381e-002
  3.9076358e-002
  4.7533455e-002
  3.0915911e-002
  1.8510784e-002
  3.8276966e-002
  4.1337682e-002
  2.8604115e-002
  5.2390771e-002
  6.2201729e-002
  3.1656698e-002
  2.6359132e-002
  4.5528695e-002
  2.5880990e-002
  2.5198172e-002
  4.1451791e-002
  3.2941215e-002
  2.4335166e-002
  4.0939689e-002
  5.3690671e-002
  3.2003304e-002
  4.1469486e-002
  5.7391173e-002
  4.1939102e-002
  3.5186785e-002
  4.9511581e-002
  3.9640987e-002
  1.4892296e-002
  2.8316612e-002
  4.9610641e-002
  2.8461966e-002
  4.4524593e-002
  4.8711033e-002
  3.5062987e-002
  3.6062268e-002
  6.1889895e-002
  6.4299339e-002
  2.3727028e-002
  2.1419796e-004
  1.4448337e-002
  1.0362853e-002
  1.0956192e-001
  3.1379807e-001
  4.4791960e-001
  4.9404319e-001
  6.1430351e-001
  8.0168200e-001
  8.4072163e-001
  7.7288069e-001
  6.8234358e-001
  4.8575861e-001
  1.9176848e-001
 -1.2083183e-002
 -5.9429073e-002
 -7.9695378e-002
 -1.1015575e-001
 -1.5125348e-001
 -1.2356464e-001
 -6.6214288e-002
  1.4853967e-002
  4.9163205e-002
  4.4674708e-002
  1.6258349e-002
 -3.6610730e-002
 -5.0553030e-002
 -3.6202224e-002
 -4.9613965e-002
 -6.5985372e-002
 -4.4381129e-002
 -4.2774926e-002
 -6.8398084e-002
 -5.4712490e-002
 -3.8766481e-002
 -4.3619844e-002
 -4.3520608e-002
 -2.0909087e-002
 -2.7751311e-002
 -4.3679875e-002
 -3.4958399e-002
 -2.8834689e-002
 -4.2612767e-002
 -5.2078931e-002
 -2.1042286e-002
 -3.2263501e-002
 -3.3867880e-002
 -1.2336382e-002
 -9.4053670e-003
 -1.6041288e-002
  6.9655965e-003
  1.5542740e-002
 -9.3677906e-003
 -7.3804291e-003
  1.8908668e-002
  1.0643715e-002
  2.0206082e-002
  4.7808196e-002
  5.1941041e-002
  4.8274793e-002
  7.0861615e-002
  8.9919627e-002
  8.3195110e-002
  8.8056077e-002
  1.0823109e-001
  9.3630624e-002
  9.6820532e-002
  1.2216491e-001
  1.3994924e-001
  1.2413033e-001
  1.5551143e-001
  1.7589958e-001
  1.6230386e-001
  1.7107053e-001
  1.8779854e-001
  1.7074431e-001
  1.7018393e-001
  2.0219196e-001
  1.8883882e-001
  1.9914301e-001
  2.2335867e-001
  2.1479784e-001
  2.0392350e-001
  2.1379389e-001
  2.2934845e-001
  2.0874959e-001
  1.9455186e-001
  2.1219913e-001
  2.0529256e-001
  1.9510538e-001
  1.9981108e-001
  2.0821743e-001
  1.9941926e-001
  2.0339876e-001
  2.2460909e-001
  1.9623901e-001
  1.7285487e-001
  2.0316895e-001
  1.8382262e-001
  1.6128053e-001
  1.9153264e-001
  2.0588615e-001
  1.8134185e-001
  1.8547005e-001
  2.1317730e-001
  1.9055866e-001
  1.9805745e-001
  2.2430205e-001
  2.1620820e-001
  2.1617445e-001
  2.4722110e-001
  2.4725181e-001
  2.4482234e-001
  2.6557296e-001
  2.8479017e-001
  2.8193733e-001
  2.8306574e-001
  3.0598863e-001
  2.9734732e-001
  2.8304832e-001
  3.0680008e-001
  3.2767065e-001
  3.3969184e-001
  3.4581400e-001
  3.6919127e-001
  3.5296511e-001
  3.2907888e-001
  3.3660237e-001
  3.4394550e-001
  3.1378097e-001
  3.1268543e-001
  2.6605727e-001
  2.1663113e-001
  2.0421178e-001
  1.2911408e-001
 -1.2674565e-002
 -1.7491782e-001
 -2.7789366e-001
 -3.9772782e-001
 -5.9929651e-001
 -6.9505154e-001
 -6.8762780e-001
 -6.9142039e-001
 -6.2354647e-001
 -5.8219929e-001
 -5.6407072e-001
 -5.1745013e-001
 -4.5309494e-001
 -4.5765583e-001
 -5.2348416e-001
 -5.8991100e-001
 -6.3811847e-001
 -6.9076570e-001
 -7.1427344e-001
 -7.1023509e-001
 -7.2358178e-001
 -7.2768658e-001
 -7.0971912e-001
 -7.2095526e-001
 -7.3875063e-001
 -7.3196623e-001
 -7.1843130e-001
 -7.3489371e-001
 -7.3450274e-001
 -7.1469316e-001
 -7.1965798e-001
 -7.1633836e-001
 -6.9090834e-001
 -6.8821933e-001
 -7.0623737e-001
 -6.7932519e-001
 -6.6146867e-001
 -6.6729488e-001
 -6.5353392e-001
 -6.3356900e-001
 -6.4270935e-001
 -6.3865900e-001
 -5.9657960e-001
 -5.8984775e-001
 -6.0024487e-001
 -5.6910588e-001
 -5.4419871e-001
 -5.5730867e-001
 -5.5044260e-001
 -5.1454056e-001
 -5.2328783e-001
 -5.1639115e-001
 -4.8058055e-001
 -4.7717723e-001
 -4.8521831e-001
 -4.4935604e-001
 -4.2335295e-001
 -4.3089972e-001
 -4.1570764e-001
 -3.9201573e-001
 -3.9064497e-001
 -3.8681412e-001
 -3.5474694e-001
 -3.4539453e-001
 -3.5353927e-001
 -3.0970890e-001
 -2.8227144e-001
 -2.8987461e-001
 -2.6126445e-001
 -2.4387930e-001
 -2.4195977e-001
 -2.4567254e-001
 -2.3021569e-001
 -2.2378923e-001
 -2.2058101e-001
 -1.8889799e-001
 -1.6278507e-001
 -1.6758906e-001
 -1.5271684e-001
 -1.3005139e-001
 -1.4221810e-001
 -1.3994925e-001
 -1.3114527e-001
 -1.4781535e-001
 -1.5967432e-001
 -1.3485490e-001
 -1.2793603e-001
 -1.3386229e-001
 -1.2484357e-001
 -9.4274495e-002
 -9.4365174e-002
 -1.0770504e-001
 -8.8416361e-002
 -1.0049613e-001
 -1.0692460e-001
 -1.0348854e-001
 -8.7671477e-002
 -9.4260291e-002
 -8.9031886e-002
 -6.8543391e-002
 -7.6602621e-002
 -8.8835231e-002
 -7.4154893e-002
 -7.6039103e-002
 -1.0059436e-001
 -8.4963499e-002
 -7.3443754e-002
 -8.7142287e-002
 -7.6732854e-002
 -6.6142757e-002
 -7.4605458e-002
 -7.0669621e-002
 -4.8273972e-002
 -5.9248732e-002
 -7.4391783e-002
 -6.1099941e-002
 -5.5894857e-002
 -7.2466795e-002
 -7.1307185e-002
 -4.7911503e-002
 -5.5917194e-002
 -6.3377987e-002
 -4.4091816e-002
 -4.8486008e-002
 -7.3550552e-002
 -6.2044203e-002
 -5.3739906e-002
 -7.7494872e-002
 -6.5894465e-002
 -4.0898807e-002
 -5.7617629e-002
 -5.9770670e-002
 -4.3037666e-002
 -5.3459700e-002
 -7.4154485e-002
 -4.3554891e-002
 -4.7865102e-002
 -6.2210258e-002
 -5.8783578e-002
 -3.3931072e-002
 -4.7525938e-002
 -4.9067905e-002
 -3.2330269e-002
 -2.7199615e-002
 -5.1939766e-002
 -4.1843390e-002
 -3.9300333e-002
 -6.1445897e-002
 -4.2220279e-002
 -3.2163334e-002
 -4.4781328e-002
 -3.5887945e-002
 -2.0419701e-002
 -3.6550778e-002
 -4.8754360e-002
 -4.0826749e-002
 -3.6514106e-002
 -5.4244248e-002
 -4.8403742e-002
 -3.3211922e-002
 -4.8020603e-002
 -4.2158930e-002
 -3.0712328e-002
 -3.6658970e-002
 -5.6741667e-002
 -4.1327579e-002
 -4.2479697e-002
 -7.2861484e-002
 -4.7937320e-002
 -3.9407836e-002
 -5.0754949e-002
 -5.5549461e-002
 -4.2219629e-002
 -4.8966954e-002
 -5.6240874e-002
 -3.5660207e-002
 -3.7748513e-002
 -5.4613615e-002
 -5.1730587e-002
 -3.4823235e-002
 -4.5149434e-002
 -5.3630572e-002
 -3.3760495e-002
 -2.9302827e-002
 -4.6111293e-002
 -3.5913976e-002
 -3.6177886e-002
 -3.8913282e-002
 -2.8278386e-002
 -2.0447100e-002
 -3.2215361e-002
 -4.8597637e-002
 -2.9052406e-002
 -2.4493695e-002
 -3.3955470e-002
 -1.6493184e-002
 -1.3549438e-002
 -3.7525842e-002
 -3.0668268e-002
 -1.5322689e-002
 -3.1169881e-002
 -4.0945601e-002
 -2.1988884e-002
 -3.6767268e-002
 -5.0116261e-002
 -1.1353423e-002
 -1.7802247e-002
 -3.2574718e-002
 -1.5142246e-002
 -1.1636930e-003
 -2.0352888e-002
 -3.2033895e-002
 -2.8017662e-002
 -2.8833489e-002
 -4.1931587e-002
 -1.9577083e-002
 -2.9561711e-003
 -2.4559528e-002
 -1.2616071e-002
 -2.2790450e-004
 -1.6226663e-002
 -1.8172458e-002
  2.7839894e-003
 -4.9716665e-003
 -2.8647154e-002
 -1.3521506e-002
 -1.7562465e-003
 -1.3305566e-002
 -8.6412979e-004
  1.2785114e-003
 -6.1017577e-003
 -1.5540297e-002
  1.6201214e-002
  2.9151214e-003
 -2.1425637e-002
 -1.3164527e-002
 -7.9094443e-003
 -2.1873602e-002
 -4.5416838e-003
 -2.5259173e-004
 -3.7271791e-003
  6.8088452e-003
  1.6764446e-002
  1.3598126e-002
  8.2108777e-004
  4.7146225e-003
  4.4595350e-003
 -2.3605519e-002
  5.5538155e-003
  1.5930503e-002
 -7.4809172e-003
  7.3029460e-003
  3.0191209e-002
  1.6347736e-002
 -6.6835236e-003
  2.0443760e-002
  1.9128628e-002
 -1.0957883e-003
 -7.4377024e-003
  1.2825768e-002
  5.1313280e-003
  1.3518181e-002
  3.5841050e-002
  2.1908503e-002
  1.7315187e-002
  3.3716456e-002
  2.6962472e-002
  3.9032914e-003
  2.4481850e-002
  3.0066416e-002
  1.4398072e-002
  8.5348842e-003
  2.8231436e-002
  1.5265700e-003
 -3.8710008e-002
 -2.7348935e-002
 -1.9332977e-002
  3.8650968e-002
  2.4101408e-001
  4.2512802e-001
  4.8666236e-001
  5.4486998e-001
  7.5041100e-001
  8.7702556e-001
  8.1192579e-001
  7.3832900e-001
  6.1526596e-001
  3.3659683e-001
  7.9317339e-002
  1.4811083e-002
 -2.2698829e-002
 -8.0799467e-002
 -1.0528594e-001
 -6.3430006e-002
 -3.0597782e-002
  3.8188013e-002
  1.0513439e-001
  8.8336481e-002
  5.2255864e-002
  2.5464932e-002
 -1.9238704e-002
 -2.0989587e-002
 -3.5214916e-003
 -2.8112419e-002
 -5.2532931e-002
 -4.1419048e-002
 -1.5176070e-002
 -3.4820554e-002
 -2.4344145e-002
 -1.8980884e-002
 -2.8591362e-002
 -1.7476164e-002
 -4.5096541e-003
 -1.9448203e-002
 -3.1185398e-002
 -1.5773442e-002
 -1.2538642e-002
 -2.3384069e-002
  3.2676226e-004
  7.9932934e-003
 -1.4784059e-002
  2.2208056e-003
  3.2210073e-002
  2.8242138e-002
  2.2033143e-002
  5.1418838e-002
  2.3554365e-002
  6.3591883e-003
  3.4352373e-002
  8.3327134e-002
  6.8527573e-002
  6.5502785e-002
  7.7726212e-002
  8.2266339e-002
  9.5726833e-002
  1.2605211e-001
  1.2144752e-001
  1.0005632e-001
  1.2231397e-001
  1.5219892e-001
  1.4372529e-001
  1.4313102e-001
  1.7975091e-001
  1.7855692e-001
  1.9489972e-001
  2.1877571e-001
  2.1599251e-001
  2.1708331e-001
  2.2804850e-001
  2.4635625e-001
  2.3376826e-001
  2.3235168e-001
  2.9020387e-001
  2.8074514e-001
  2.7383268e-001
  2.9231168e-001
  2.9901931e-001
  3.0584804e-001
  3.2023030e-001
  3.1893873e-001
  3.0596154e-001
  3.1950304e-001
  3.3324159e-001
  3.3465069e-001
  3.1880305e-001
  3.2983107e-001
  3.4266247e-001
  3.2439861e-001
  3.4339820e-001
  3.5348354e-001
  3.4789233e-001
  3.2520008e-001
  3.0835358e-001
  3.2353806e-001
  3.0691161e-001
  3.1693036e-001
  3.2642340e-001
  3.2054293e-001
  3.1954873e-001
  3.3773223e-001
  3.3153584e-001
  3.1613783e-001
  3.2226017e-001
  3.2404551e-001
  3.0073146e-001
  2.9967360e-001
  3.0755242e-001
  2.9358084e-001
  3.2283793e-001
  3.6933741e-001
  3.3400998e-001
  3.2825705e-001
  3.4869175e-001
  3.4807114e-001
  3.4602366e-001
  3.6203543e-001
  4.0216919e-001
  3.9940496e-001
  3.8982873e-001
  4.2091024e-001
  4.1409340e-001
  4.4022345e-001
  4.6181177e-001
  4.5434528e-001
  4.9464911e-001
  5.2012870e-001
  5.1209078e-001
  5.0664759e-001
  5.3919425e-001
  5.3604237e-001
  5.1276857e-001
  5.0940723e-001
  5.3851894e-001
  5.1329962e-001
  4.7901108e-001
  4.9021810e-001
  4.5275097e-001
  3.8932121e-001
  3.2622760e-001
  2.7122968e-001
  1.3123524e-001
 -3.3214652e-003
 -1.4916962e-001
 -2.8759281e-001
 -4.4681804e-001
 -5.5284619e-001
 -5.8125903e-001
 -6.3001766e-001
 -5.9672671e-001
 -5.6384974e-001
 -5.2818715e-001
 -4.5847029e-001
 -3.8608614e-001
 -4.3442946e-001
 -4.9618063e-001
 -5.1810942e-001
 -5.3855635e-001
 -5.7448106e-001
 -6.0730754e-001
 -6.2791048e-001
 -6.6824512e-001
 -6.6073015e-001
 -6.3214665e-001
 -6.6498089e-001
 -6.9679842e-001
 -6.6221227e-001
 -6.3609765e-001
 -6.7645228e-001
 -6.6598352e-001
 -6.3798250e-001
 -6.3992259e-001
 -6.3857320e-001
 -6.1702159e-001
 -6.1225838e-001
 -6.1597410e-001
 -5.7923089e-001
 -5.3935777e-001
 -5.6074489e-001
 -5.2750776e-001
 -4.7324271e-001
 -4.6162601e-001
 -4.2091777e-001
 -3.6580963e-001
 -3.6155986e-001
 -3.6238367e-001
 -3.2084719e-001
 -2.7615109e-001
 -2.7827003e-001
 -2.8639354e-001
 -2.4931431e-001
 -2.3578363e-001
 -2.0219231e-001
 -1.6934018e-001
 -1.5540851e-001
 -1.3236255e-001
 -9.8489778e-002
 -7.2786213e-002
 -6.1207720e-002
 -5.4559588e-002
 -3.6134308e-002
 -2.3728558e-002
 -1.9434242e-003
  3.7257308e-002
  6.8156467e-002
  8.1798458e-002
  1.3223665e-001
  1.5095804e-001
  1.5201418e-001
  1.8245476e-001
  2.3259745e-001
  2.3317191e-001
  2.5931716e-001
  2.9095032e-001
  2.9293590e-001
  2.9455398e-001
  3.3109287e-001
  3.8484636e-001
  3.6104865e-001
  3.7001777e-001
  4.0310720e-001
  3.9906208e-001
  4.2816260e-001
  4.4209888e-001
  4.1603694e-001
  4.1078491e-001
  4.5174824e-001
  4.3778831e-001
  4.2152493e-001
  4.2960167e-001
  4.6481769e-001
  4.6026269e-001
  4.2452956e-001
  4.4477531e-001
  4.3636358e-001
  4.4723597e-001
  4.6466710e-001
  4.5320842e-001
  4.1533111e-001
  4.3247565e-001
  4.3531767e-001
  4.2436422e-001
  4.1949828e-001
  4.3277646e-001
  4.1078694e-001
  4.1174905e-001
  4.1152429e-001
  3.9409703e-001
  3.7682423e-001
  3.9705361e-001
  3.9846915e-001
  3.5947619e-001
  3.5706682e-001
  3.6730419e-001
  3.5235709e-001
  3.3863827e-001
  3.5538316e-001
  3.5178965e-001
  3.3471235e-001
  3.2733975e-001
  3.1483579e-001
  3.0119658e-001
  3.0287029e-001
  3.1084402e-001
  2.5619285e-001
  2.5728424e-001
  2.5753701e-001
  2.4347407e-001
  2.2346857e-001
  2.2177155e-001
  2.3255426e-001
  1.9090175e-001
  1.6201524e-001
  1.6993950e-001
  1.4694634e-001
  1.2735754e-001
  1.1112236e-001
  9.6796047e-002
  8.5403202e-002
  1.1349809e-001
  9.5585667e-002
  2.6071321e-002
  1.2546025e-003
  1.0438041e-002
 -1.9704115e-003
 -2.3326494e-002
 -6.0828695e-002
 -9.6519013e-002
 -1.2241967e-001
 -1.1622782e-001
 -1.1621917e-001
 -1.4736397e-001
 -1.5339129e-001
 -1.5354335e-001
 -1.6784364e-001
 -1.8605388e-001
 -1.8949750e-001
 -2.0252377e-001
 -2.2753022e-001
 -2.2505484e-001
 -2.2139319e-001
 -2.6669995e-001
 -2.6545214e-001
 -2.4098318e-001
 -2.6972911e-001
 -2.8811903e-001
 -2.7430157e-001
 -2.6937127e-001
 -2.9257882e-001
 -2.8688997e-001
 -3.0335379e-001
 -3.2329470e-001
 -3.2274365e-001
 -2.9864975e-001
 -3.1314543e-001
 -3.2504590e-001
 -3.1105620e-001
 -3.1369824e-001
 -3.3152721e-001
 -3.2698736e-001
 -3.0989538e-001
 -3.2310848e-001
 -3.2619792e-001
 -3.1706851e-001
 -3.1987345e-001
 -3.2945606e-001
 -3.1945495e-001
 -3.1103219e-001
 -3.2515436e-001
 -3.2236116e-001
 -2.9388099e-001
 -3.1163217e-001
 -3.1411270e-001
 -3.0039637e-001
 -3.0859008e-001
 -3.2155971e-001
 -3.0389386e-001
 -2.9063275e-001
 -3.0713887e-001
 -2.9768504e-001
 -2.8698539e-001
 -3.0116081e-001
 -2.9409241e-001
 -2.9258912e-001
 -2.9643282e-001
 -3.1187975e-001
 -2.8578675e-001
 -2.7028281e-001
 -2.8132562e-001
 -2.7992473e-001
 -2.5697933e-001
 -2.7084511e-001
 -2.6868955e-001
 -2.5481500e-001
 -2.6074540e-001
 -2.7388636e-001
 -2.4951800e-001
 -2.5004719e-001
 -2.6821490e-001
 -2.4223737e-001
 -2.4624084e-001
 -2.5078220e-001
 -2.2418874e-001
 -2.1563395e-001
 -2.2430427e-001
 -2.4614601e-001
 -2.1819948e-001
 -2.1413140e-001
 -2.2656310e-001
 -2.4434642e-001
 -2.3052261e-001
 -2.3888114e-001
 -2.4494817e-001
 -2.1813216e-001
 -2.2338570e-001
 -2.3603772e-001
 -1.9666327e-001
 -1.9949834e-001
 -2.3576890e-001
 -2.2743120e-001
 -2.2009253e-001
 -2.3585533e-001
 -2.2334510e-001
 -2.0577775e-001
 -2.2428843e-001
 -2.3726355e-001
 -2.1200432e-001
 -2.0306520e-001
 -1.9655525e-001
 -1.9400335e-001
 -1.8399537e-001
 -2.1118829e-001
 -2.1535025e-001
 -1.8936006e-001
 -2.1707465e-001
 -2.1903190e-001
 -1.9419297e-001
 -1.7404876e-001
 -1.9667877e-001
 -1.8184181e-001
 -1.7301756e-001
 -1.8257944e-001
 -1.9061400e-001
 -1.6724075e-001
 -1.8307567e-001
 -2.0150764e-001
 -1.7935359e-001
 -1.8101181e-001
 -1.7840826e-001
 -1.6370118e-001
 -1.4729000e-001
 -1.7825475e-001
 -1.6902217e-001
 -1.4596305e-001
 -1.5560788e-001
 -1.7791387e-001
 -1.6836590e-001
 -1.5868054e-001
 -1.7517650e-001
 -1.7178740e-001
 -1.5233049e-001
 -1.6585164e-001
 -1.5994005e-001
 -1.3055552e-001
 -1.4470342e-001
 -1.4048449e-001
 -1.3344136e-001
 -1.8073438e-001
 -2.0277827e-001
 -1.7173658e-001
 -1.0688882e-001
  4.6482452e-002
  2.3155822e-001
  3.2841496e-001
  3.5232412e-001
  5.0075342e-001
  6.6028343e-001
  6.4142961e-001
  5.4482857e-001
  4.4507515e-001
  2.2702907e-001
 -5.3035142e-002
 -1.7497789e-001
 -1.9053612e-001
 -2.2902388e-001
 -3.0870528e-001
 -2.7169576e-001
 -2.3266897e-001
 -1.8150510e-001
 -7.7560007e-002
 -5.0576237e-002
 -1.1518680e-001
 -1.6067968e-001
 -1.4462175e-001
 -1.4308657e-001
 -1.3865000e-001
 -1.2782050e-001
 -1.2977874e-001
 -1.5139665e-001
 -1.3297535e-001
 -1.1212478e-001
 -1.2113960e-001
 -1.3448574e-001
 -1.1603494e-001
 -1.2033682e-001
 -1.1406484e-001
 -1.0069313e-001
 -1.0411770e-001
 -9.9468025e-002
 -8.0065022e-002
 -5.6713222e-002
 -5.0052939e-002
 -6.6809490e-002
 -6.7642667e-002
 -5.5516715e-002
 -3.3984057e-002
 -7.7126328e-003
 -1.2825654e-002
 -1.4749234e-002
  5.6456556e-003
  4.0730781e-002
  3.3681444e-002
  4.8824744e-002
  6.6377341e-002
  7.0345656e-002
  7.3886424e-002
  1.0296464e-001
  1.2238230e-001
  1.2523695e-001
  1.5630647e-001
  1.7879846e-001
  1.7488469e-001
  1.9158391e-001
  2.2487788e-001
  2.2073920e-001
  2.2413799e-001
  2.4766198e-001
  2.6357412e-001
  2.5653396e-001
  2.7547582e-001
  2.9723890e-001
  2.9656486e-001
  3.0137894e-001
  3.2986427e-001
  3.2047194e-001
  3.1389521e-001
  3.4071995e-001
  3.4211230e-001
  3.2772119e-001
  3.5331197e-001
  3.7041792e-001
  3.5461843e-001
  3.7785237e-001
  3.8769070e-001
  3.7579239e-001
  3.7461427e-001
  3.7939403e-001
  3.8566518e-001
  3.7107217e-001
  3.8097893e-001
  3.7414641e-001
  3.5593572e-001
  3.6332410e-001
  3.7326387e-001
  3.6676665e-001
  3.4297177e-001
  3.5088484e-001
  3.4976229e-001
  3.5525830e-001
  3.6582771e-001
  3.4767291e-001
  3.4221258e-001
  3.4113795e-001
  3.4882253e-001
  3.6094532e-001
  3.5189268e-001
  3.7229242e-001
  3.7291792e-001
  3.5903200e-001
  3.8430855e-001
  4.1038198e-001
  3.8080228e-001
  3.7657760e-001
  3.9866657e-001
  4.1021989e-001
  4.2877447e-001
  4.7832488e-001
  5.1219658e-001
  5.0726029e-001
  5.4439209e-001
  5.8502842e-001
  5.6388934e-001
  5.7826665e-001
  6.1226191e-001
  6.1395816e-001
  6.1979827e-001
  6.5001327e-001
  6.6721391e-001
  6.4477001e-001
  6.4130870e-001
  6.5871545e-001
  6.7374509e-001
  6.9532239e-001
  7.1326055e-001
  7.4366937e-001
  7.3481332e-001
  7.1214147e-001
  6.6162502e-001
  5.6245664e-001
  4.6154620e-001
  3.0494024e-001
  1.4453391e-001
  1.4595999e-002
 -1.3078005e-001
 -2.5308233e-001
 -2.7230290e-001
 -2.4620102e-001
 -1.9941069e-001
 -1.1365791e-001
 -8.9175034e-002
 -1.1321900e-001
 -1.9498540e-001
 -2.7100419e-001
 -2.8648250e-001
 -3.2007350e-001
 -3.6889319e-001
 -3.4441414e-001
 -3.4063741e-001
 -3.7086868e-001
 -3.8151341e-001
 -3.7796646e-001
 -3.9273343e-001
 -4.0175617e-001
 -4.0317817e-001
 -4.2504777e-001
 -4.3354833e-001
 -4.1476656e-001
 -4.3170740e-001
 -4.6717139e-001
 -4.6790316e-001
 -4.6400056e-001
 -4.6479177e-001
 -4.7094174e-001
 -4.5816130e-001
 -4.5399489e-001
 -4.5994301e-001
 -4.5417681e-001
 -4.4947126e-001
 -4.6394246e-001
 -4.2774623e-001
 -4.3588665e-001
 -4.4982116e-001
 -4.3852488e-001
 -4.1600604e-001
 -4.0774586e-001
 -4.0383796e-001
 -3.6817977e-001
 -3.6031630e-001
 -3.6666492e-001
 -3.6340675e-001
 -3.5136031e-001
 -3.5496884e-001
 -3.4190311e-001
 -3.0974001e-001
 -3.1965727e-001
 -3.0659396e-001
 -2.8369337e-001
 -2.7197316e-001
 -2.7038309e-001
 -2.4334034e-001
 -2.0188080e-001
 -2.0964600e-001
 -2.0504158e-001
 -1.8684518e-001
 -1.8488982e-001
 -1.6373170e-001
 -1.4302794e-001
 -1.1318329e-001
 -1.2371715e-001
 -1.1004191e-001
 -9.9358173e-002
 -1.0942718e-001
 -8.7025654e-002
 -7.8642305e-002
 -7.0514801e-002
 -7.7179469e-002
 -5.4839954e-002
 -5.3215274e-002
 -4.6006110e-002
 -3.2439115e-002
 -2.6095718e-002
 -3.7058196e-002
 -2.0315432e-002
  3.4123139e-004
 -1.9328632e-002
 -2.4874747e-002
 -1.6732650e-002
 -2.4189581e-002
 -1.2768756e-002
 -9.9100485e-004
  6.5323040e-003
 -2.7627399e-002
 -1.2994748e-002
 -7.5725135e-004
 -9.3791833e-003
 -2.5229570e-002
 -1.2494313e-002
 -1.0339646e-002
 -2.9012588e-002
 -1.5821113e-003
 -7.9432288e-003
 -1.7857927e-002
 -1.5042607e-002
  1.8861167e-002
 -1.4939218e-002
 -2.6828548e-002
 -1.9752123e-003
 -1.4712254e-002
 -4.0958603e-002
 -3.9684013e-002
 -3.0232209e-003
 -3.5668916e-002
 -1.4773434e-002
  1.3584186e-003
 -1.7821818e-002
 -1.5259181e-003
  4.3412336e-004
 -2.6293368e-003
 -2.2525965e-002
 -4.0724566e-002
 -2.4423258e-002
 -2.5063922e-002
 -2.0703797e-002
  1.5814104e-002
 -2.2363127e-002
 -1.8014182e-002
 -9.2547936e-003
 -1.6399725e-002
 -2.7724406e-002
 -2.0308293e-002
 -1.3787142e-002
 -2.6947627e-002
 -2.4730447e-002
 -1.5886230e-002
 -1.3653561e-002
 -2.9031934e-002
 -1.8502185e-002
 -1.6508644e-002
 -4.1015234e-002
 -3.4110469e-002
 -1.8332290e-002
 -3.8539885e-002
 -3.7656549e-002
 -2.1979163e-002
 -2.3557855e-002
 -3.1613543e-002
 -1.5808155e-002
 -1.1387633e-002
 -2.7426877e-002
 -1.2373682e-002
 -1.5723130e-002
 -3.5163927e-002
 -2.4104231e-002
 -1.3017783e-002
 -2.2269801e-002
 -3.7551218e-002
 -8.2477742e-003
 -6.9095004e-003
 -3.2448985e-002
 -1.0933825e-002
 -7.0425933e-003
 -3.7746624e-002
 -3.9541598e-002
 -2.4077962e-002
 -4.5619769e-002
 -5.3074149e-002
 -2.3765209e-002
 -2.5473176e-002
 -4.4783630e-002
 -3.7677197e-002
 -3.2292187e-002
 -5.5331674e-002
 -4.3617498e-002
 -3.6550535e-002
 -6.4902270e-002
 -6.7443415e-002
 -4.5341703e-002
 -3.7207435e-002
 -5.2687203e-002
 -4.5613212e-002
 -4.7545404e-002
 -6.1771857e-002
 -5.8795007e-002
 -4.2974127e-002
 -6.5273544e-002
 -7.6625241e-002
 -6.2257484e-002
 -5.9174377e-002
 -7.2667595e-002
 -5.6346333e-002
 -4.6884853e-002
 -5.6479899e-002
 -5.6544573e-002
 -4.0017449e-002
 -5.7154227e-002
 -7.2587255e-002
 -5.4223413e-002
 -6.6639512e-002
 -8.0902375e-002
 -4.4182722e-002
 -3.8498169e-002
 -6.0906086e-002
 -6.1369227e-002
 -4.3377580e-002
 -5.7293467e-002
 -7.0819350e-002
 -7.3150869e-002
 -5.9846148e-002
 -7.9851543e-002
 -5.3609507e-002
 -4.3511580e-002
 -7.4088675e-002
 -7.1413368e-002
 -4.3245676e-002
 -5.5187286e-002
 -6.9547216e-002
 -4.9282556e-002
 -6.4574035e-002
 -8.0070777e-002
 -6.6308581e-002
 -6.1634999e-002
 -7.5247262e-002
 -6.1191498e-002
 -4.5533038e-002
 -5.8389531e-002
 -6.8543139e-002
 -4.7209928e-002
 -5.0217967e-002
 -6.5804154e-002
 -6.2635685e-002
 -6.7705654e-002
 -8.1843567e-002
 -7.2103759e-002
 -4.4617176e-002
 -5.4111051e-002
 -6.2525402e-002
 -3.4723645e-002
 -3.6802705e-002
 -5.7645253e-002
 -4.2900852e-002
 -5.3205674e-002
 -5.9672176e-002
 -5.5972055e-002
 -2.9886693e-002
 -2.7320998e-002
 -3.3274062e-002
 -1.8600512e-002
 -2.2686806e-002
 -2.9468969e-002
 -1.3534516e-002
 -1.5340719e-002
 -4.1623454e-002
 -1.8310411e-002
 -7.3265923e-003
 -1.7284723e-002
 -1.4315013e-002
  1.0120015e-002
  8.2150655e-003
 -6.5191734e-003
  6.3490160e-003
  1.3800307e-002
 -1.0242911e-002
 -1.0670924e-002
  1.6557853e-004
 -2.9699371e-002
 -7.2065175e-002
 -4.8400805e-002
 -2.5381307e-002
  1.7089595e-002
  2.0293050e-001
  3.7204576e-001
  4.2366500e-001
  4.8650997e-001
  6.4583355e-001
  7.1374776e-001
  6.4634436e-001
  5.7878858e-001
  4.5094251e-001
  2.2018638e-001
  3.6203966e-002
 -3.7463286e-002
 -8.5265848e-002
 -1.3379302e-001
 -1.6176540e-001
 -1.5214106e-001
 -1.1096157e-001
 -2.1470628e-002
  2.1280048e-002
  2.4553274e-003
 -2.3666901e-002
 -4.8143255e-002
 -7.6378894e-002
 -5.6450100e-002
 -4.6056599e-002
 -7.2935071e-002
 -8.3799934e-002
 -8.2051575e-002
 -8.8935257e-002
 -1.0320954e-001
 -8.9473914e-002
 -8.0366163e-002
 -1.0140232e-001
 -9.0816440e-002
 -7.4990070e-002
 -8.7787180e-002
 -9.0931063e-002
 -7.2142768e-002
 -8.4676888e-002
 -9.6854679e-002
 -8.7447008e-002
 -7.4911631e-002
 -8.3410978e-002
 -7.4322813e-002
 -5.5490330e-002
 -5.3091826e-002
 -6.2428955e-002
 -3.5831044e-002
 -3.5019379e-002
 -5.5463879e-002
 -3.5411487e-002
 -2.2127083e-002
 -4.5133649e-002
 -1.7359091e-002
  1.3105049e-002
  2.8066571e-003
  8.1110579e-003
  3.1394674e-002
  3.3089480e-002
  2.6459324e-002
  3.2489941e-002
  4.9110572e-002
  3.8976899e-002
  5.7076392e-002
  7.7261076e-002
  6.8200175e-002
  7.9051806e-002
  9.7615778e-002
  1.0444217e-001
  9.1168720e-002
  1.2124360e-001
  1.2539329e-001
  9.9991104e-002
  1.1597512e-001
  1.3038823e-001
  1.3462045e-001
  1.4298135e-001
  1.6444397e-001
  1.6903306e-001
  1.5060653e-001
  1.7196925e-001
  1.7744892e-001
  1.4631950e-001
  1.4987321e-001
  1.7818526e-001
  1.6888723e-001
  1.5613973e-001
  1.7528011e-001
  1.6747389e-001
  1.4877249e-001
  1.7096030e-001
  1.6648909e-001
  1.4586296e-001
  1.5428415e-001
  1.6795651e-001
  1.4769516e-001
  1.3460983e-001
  1.4664722e-001
  1.3602874e-001
  1.4040823e-001
  1.5031632e-001
  1.5670253e-001
  1.4071999e-001
  1.5781520e-001
  1.5826894e-001
  1.4301012e-001
  1.3699855e-001
  1.4861308e-001
  1.4870078e-001
  1.3424530e-001
  1.5641453e-001
  1.7868618e-001
  1.8266032e-001
  1.8758983e-001
  1.9909211e-001
  1.8714068e-001
  1.9186070e-001
  2.2843737e-001
  2.3466374e-001
  2.1004323e-001
  2.3657218e-001
  2.3839152e-001
  2.2994884e-001
  2.5671182e-001
  2.8444618e-001
  2.6341719e-001
  2.5966981e-001
  2.5472754e-001
  2.4145129e-001
  2.4082471e-001
  2.4887587e-001
  2.2780436e-001
  2.1327444e-001
  2.2501899e-001
  2.0694927e-001
  1.1497717e-001
  5.2523932e-002
 -6.8065077e-002
 -2.9258890e-001
 -4.6207182e-001
 -5.8060326e-001
 -7.6825259e-001
 -8.8770244e-001
 -8.9638397e-001
 -8.6682297e-001
 -8.4448780e-001
 -7.5041246e-001
 -6.3734388e-001
 -6.1695582e-001
 -6.4596357e-001
 -6.4672389e-001
 -6.6404221e-001
 -7.1235894e-001
 -7.2706068e-001
 -7.2119977e-001
 -7.2955638e-001
 -7.3260922e-001
 -7.1959895e-001
 -7.2757104e-001
 -7.2947638e-001
 -7.2443778e-001
 -7.3584618e-001
 -7.4121812e-001
 -7.3268720e-001
 -7.2964848e-001
 -7.3310442e-001
 -7.3863900e-001
 -7.1245133e-001
 -7.1456871e-001
 -7.1328616e-001
 -6.9300954e-001
 -6.8187910e-001
 -6.9110632e-001
 -6.7919784e-001
 -6.5075059e-001
 -6.5796555e-001
 -6.4724451e-001
 -6.0984745e-001
 -6.1600491e-001
 -6.0014802e-001
 -5.6343091e-001
 -5.6815062e-001
 -5.6647165e-001
 -5.4635008e-001
 -5.3208351e-001
 -5.3433218e-001
 -5.1885675e-001
 -4.9793249e-001
 -4.9413445e-001
 -4.8042674e-001
 -4.4793692e-001
 -4.3298546e-001
 -4.3110708e-001
 -4.1702799e-001
 -3.7668535e-001
 -3.7743373e-001
 -3.6079524e-001
 -3.4221395e-001
 -3.4347437e-001
 -3.4414451e-001
 -2.9562976e-001
 -2.7387523e-001
 -2.7239422e-001
 -2.4064686e-001
 -1.8343809e-001
 -1.7225584e-001
 -1.6651678e-001
 -1.3813009e-001
 -1.4484465e-001
 -1.6021980e-001
 -1.2856124e-001
 -9.1770811e-002
 -9.0234069e-002
 -7.1104808e-002
 -7.1489880e-002
 -8.6004978e-002
 -6.5590364e-002
 -2.3753594e-002
 -5.4678462e-002
 -6.1572743e-002
 -5.9401797e-002
 -6.7587178e-002
 -6.9546248e-002
 -5.1611128e-002
 -4.7421912e-002
 -6.6931244e-002
 -6.7156300e-002
 -5.0221719e-002
 -5.8163450e-002
 -7.7601366e-002
 -6.5456890e-002
 -3.9292876e-002
 -5.8159506e-002
 -4.9198350e-002
 -3.2693230e-002
 -4.1250882e-002
 -5.0531198e-002
 -2.8019987e-002
 -4.3079796e-002
 -5.5624375e-002
 -3.4615519e-002
 -2.5353396e-002
 -5.4252691e-002
 -2.2959454e-002
 -7.9909789e-003
 -3.9135839e-002
 -3.0740398e-002
 -8.7311411e-003
 -2.5911490e-002
 -4.9576601e-002
 -3.4558482e-002
 -2.6772749e-002
 -4.5923762e-002
 -2.7625512e-002
 -1.5976456e-002
 -2.3457546e-002
 -2.3398859e-002
 -9.8877299e-003
 -1.1075533e-002
 -3.3357947e-002
 -8.7606906e-003
 -1.3869805e-002
 -3.2123982e-002
 -1.3634420e-002
 -9.8639127e-003
 -1.8509844e-002
 -1.3421501e-002
 -2.2232115e-003
 -2.0055650e-002
 -1.8472077e-002
 -1.2165773e-003
 -1.2141109e-002
 -3.0667196e-002
 -2.5745036e-002
 -2.6787078e-002
 -3.0687410e-002
 -1.6139328e-002
  1.0223686e-002
 -9.3918436e-003
 -2.3358202e-002
 -5.7337280e-003
 -8.3015062e-003
 -3.6309945e-002
 -1.4516535e-002
 -5.9089476e-003
 -2.9001022e-002
 -2.1131313e-002
 -8.1774726e-003
 -1.4137802e-002
 -1.5877172e-002
 -5.7771884e-004
  9.1829135e-003
 -3.3271634e-002
 -2.4841733e-002
 -9.3801409e-003
 -2.0675129e-002
 -4.0514945e-002
 -1.6297870e-002
 -5.4886042e-003
 -2.5778997e-002
 -5.4137085e-003
 -1.1580287e-002
 -2.3213139e-002
 -2.4787417e-002
 -1.0233220e-002
 -1.7764526e-002
 -2.3776443e-002
 -1.1404632e-002
 -3.4503537e-002
 -3.7208166e-002
 -1.5522461e-002
 -6.2339403e-003
 -2.1978404e-002
 -4.6927487e-003
  5.0571221e-004
 -2.0071595e-002
 -1.8491678e-002
 -8.5957109e-003
 -2.1629226e-002
 -2.7545567e-002
 -6.8852217e-003
  2.6175108e-003
 -2.8832374e-002
 -8.2633214e-003
  2.3922852e-003
 -1.0356787e-002
 -1.7622726e-002
 -2.7615066e-003
 -5.4211346e-003
 -2.8869611e-002
 -5.5813260e-003
 -1.4188881e-002
 -2.5642286e-002
 -2.1378360e-003
 -1.6134031e-003
 -1.5591072e-002
 -1.1594851e-002
  8.4412327e-004
 -4.5649865e-003
 -2.0733750e-002
 -3.7711216e-003
 -6.3177677e-003
 -3.8008712e-002
 -1.7091014e-002
  1.0988994e-002
 -5.3226383e-003
 -3.3495406e-003
  1.1407326e-002
 -4.5739000e-003
 -1.0794633e-002
 -1.5970439e-002
 -2.0754523e-002
 -2.4965417e-002
 -3.0912249e-002
 -5.1464109e-003
 -1.6095267e-002
 -1.9761404e-002
  2.4331897e-004
 -9.1469321e-003
 -1.4976959e-002
 -2.9946156e-003
 -2.9075872e-003
 -1.8350663e-002
 -1.8235217e-002
 -2.4308391e-003
 -2.9735821e-002
 -2.8978079e-002
 -9.8989319e-003
 -2.1569629e-003
 -1.5644448e-002
 -1.1517270e-002
  3.3402112e-003
 -1.1349732e-002
 -4.6672805e-003
  2.5344920e-003
 -1.5357161e-002
 -1.9544058e-002
 -4.9536428e-003
 -1.9374464e-002
 -1.9865070e-002
 -4.5812012e-004
 -3.1313122e-003
 -2.4208161e-002
 -2.2636454e-002
  8.1633283e-004
 -2.6644886e-002
 -3.0905812e-002
 -1.1265228e-002
 -1.9755410e-002
 -2.7058666e-002
 -5.0844997e-003
 -3.9058881e-003
 -2.3263728e-002
 -1.8497013e-002
 -2.7789320e-004
 -1.9172094e-002
 -3.2828927e-002
 -1.1285437e-002
 -2.7843371e-002
 -3.6911553e-002
 -2.6668883e-002
 -1.4043936e-002
 -2.4701324e-002
 -2.4748187e-002
  2.4715783e-003
 -1.9889043e-002
 -2.4428392e-002
 -3.7533634e-002
 -7.8139855e-002
 -1.0163976e-001
 -4.1775541e-002
  9.0899730e-002
  2.6793256e-001
  4.1207309e-001
  4.6338972e-001
  5.5030888e-001
  7.1550116e-001
  7.4760247e-001
  6.1051318e-001
  4.5338853e-001
  2.2609126e-001
 -2.4553121e-002
 -1.1489999e-001
 -1.2232804e-001
 -1.4326457e-001
 -1.9922758e-001
 -1.4988189e-001
 -8.1119442e-002
 -1.8258831e-002
  4.1189821e-002
  4.0325845e-002
 -1.3836256e-002
 -8.7068038e-002
 -9.9264936e-002
 -7.2548838e-002
 -8.2147138e-002
 -8.6699395e-002
 -7.4399163e-002
 -9.4744534e-002
 -9.8895597e-002
 -8.5259747e-002
 -1.0796110e-001
 -1.0865323e-001
 -8.5557834e-002
 -8.9869093e-002
 -1.0771003e-001
 -8.2483354e-002
 -5.3619297e-002
 -5.9053544e-002
 -7.7487980e-002
 -4.9441553e-002
 -4.8028979e-002
 -6.9545821e-002
 -5.1026316e-002
 -4.0935890e-002
 -4.0760742e-002
 -2.7300791e-002
 -6.4675692e-003
 -9.9645533e-003
 -1.5947447e-002
  8.1984258e-003
  1.8745738e-002
  6.2330892e-003
  1.4196713e-002
  3.6250034e-002
  1.4318494e-002
  2.8932353e-002
  5.0027633e-002
  5.3516981e-002
  5.8325496e-002
  7.9553090e-002
  9.3392693e-002
  8.5747179e-002
  1.0768859e-001
  1.1807959e-001
  1.1082778e-001
  1.1781331e-001
  1.4127464e-001
  1.3516242e-001
  1.3602029e-001
  1.5609892e-001
  1.6730499e-001
  1.5162423e-001
  1.7585787e-001
  1.9097129e-001
  1.7154041e-001
  1.7565316e-001
  2.0071934e-001
  1.8658877e-001
  1.8078288e-001
  2.0496763e-001
  1.9835317e-001
  1.9211888e-001
  2.0373526e-001
  2.1285325e-001
  2.0435625e-001
  2.0317790e-001
  2.2280835e-001
  2.1435395e-001
  2.0626912e-001
  2.1538228e-001
  2.0142262e-001
  1.9563895e-001
  2.0163723e-001
  2.0649036e-001
  1.9459774e-001
  1.9830627e-001
  2.1291789e-001
  1.9301683e-001
  1.8042726e-001
  1.9822375e-001
  1.9187642e-001
  1.5959867e-001
  1.7818679e-001
  1.9600786e-001
  1.8142732e-001
  1.8195766e-001
  2.0544361e-001
  2.0143537e-001
  1.8516752e-001
  2.0613555e-001
  2.1515763e-001
  2.0597003e-001
  2.1296030e-001
  2.4208932e-001
  2.2972933e-001
  2.4857629e-001
  2.7962431e-001
  2.5955524e-001
  2.5757244e-001
  2.8172310e-001
  3.0521909e-001
  2.9461152e-001
  3.0913109e-001
  3.2631478e-001
  2.9574393e-001
  3.0525802e-001
  3.3604422e-001
  3.3078202e-001
  3.0905102e-001
  2.9226550e-001
  2.8208888e-001
  2.7693749e-001
  3.0877799e-001
  3.0942611e-001
  3.0214672e-001
  2.8824221e-001
  2.4272261e-001
  1.5271566e-001
  4.8640098e-002
 -6.4795893e-002
 -2.9154967e-001
 -4.8142800e-001
 -6.2109381e-001
 -7.3799924e-001
 -8.2059421e-001
 -8.5446609e-001
 -8.1450355e-001
 -7.6802427e-001
 -6.6509624e-001
 -5.5043323e-001
 -4.9575505e-001
 -5.1498013e-001
 -5.2848192e-001
 -5.5446216e-001
 -5.9666998e-001
 -6.3663378e-001
 -6.5679409e-001
 -6.8486986e-001
 -6.9508556e-001
 -6.7854461e-001
 -6.8685108e-001
 -7.0636286e-001
 -6.9063385e-001
 -6.8955440e-001
 -7.1572318e-001
 -7.1188846e-001
 -6.7790732e-001
 -6.9253544e-001
 -6.9745954e-001
 -6.8365414e-001
 -6.8294180e-001
 -6.9004735e-001
 -6.6712207e-001
 -6.5594397e-001
 -6.7363169e-001
 -6.6370088e-001
 -6.4464959e-001
 -6.4833930e-001
 -6.3416243e-001
 -5.9978201e-001
 -6.0706204e-001
 -6.2080993e-001
 -5.9433390e-001
 -5.7193154e-001
 -5.8675643e-001
 -5.6783134e-001
 -5.4122440e-001
 -5.4172968e-001
 -5.2744921e-001
 -5.0138698e-001
 -4.9751703e-001
 -5.1602828e-001
 -4.8436298e-001
 -4.6928870e-001
 -4.6932353e-001
 -4.5224358e-001
 -4.3087327e-001
 -4.1754137e-001
 -4.0396983e-001
 -3.7651704e-001
 -3.7434416e-001
 -3.7546045e-001
 -3.5635569e-001
 -3.3395434e-001
 -3.3172259e-001
 -3.2019118e-001
 -2.8423757e-001
 -3.0436176e-001
 -2.7818230e-001
 -2.4248418e-001
 -2.2332274e-001
 -2.0869809e-001
 -1.8205641e-001
 -1.5692857e-001
 -1.4950469e-001
 -1.5137279e-001
 -1.4130582e-001
 -1.4036135e-001
 -1.6290666e-001
 -1.1817590e-001
 -1.1219107e-001
 -1.3000327e-001
 -1.1041299e-001
 -1.0296221e-001
 -1.1413399e-001
 -1.0890597e-001
 -7.8365842e-002
 -9.6070967e-002
 -1.0240663e-001
 -1.0093265e-001
 -1.1564012e-001
 -1.1667974e-001
 -9.4156527e-002
 -9.0396965e-002
 -8.8764172e-002
 -9.4642260e-002
 -1.0120128e-001
 -1.2077600e-001
 -1.2516132e-001
 -1.1269304e-001
 -9.6230097e-002
 -1.1885636e-001
 -9.8331394e-002
 -9.1658564e-002
 -9.7088807e-002
 -8.4924431e-002
 -7.6837481e-002
 -8.6737395e-002
 -1.0038062e-001
 -9.5677372e-002
 -1.0557613e-001
 -1.1178895e-001
 -9.8824304e-002
 -8.6203619e-002
 -1.0970719e-001
 -1.0809789e-001
 -9.2582396e-002
 -8.2714520e-002
 -9.8642955e-002
 -7.7402118e-002
 -7.4335713e-002
 -9.2637400e-002
 -8.5201192e-002
 -7.6508539e-002
 -1.0045948e-001
 -9.8451970e-002
 -6.9547312e-002
 -7.6335045e-002
 -7.0760900e-002
 -5.7818916e-002
 -7.4402093e-002
 -8.5715006e-002
 -7.3340457e-002
 -6.5058934e-002
 -8.1063396e-002
 -7.2782148e-002
 -6.3588264e-002
 -6.1147205e-002
 -6.8766530e-002
 -5.0397457e-002
 -6.8045602e-002
 -7.7196330e-002
 -5.6740042e-002
 -6.3647588e-002
 -7.1279238e-002
 -5.3422787e-002
 -5.4133788e-002
 -7.6497941e-002
 -7.8150146e-002
 -7.0306989e-002
 -5.1180259e-002
 -5.6817475e-002
 -5.0576793e-002
 -2.9000909e-002
 -5.1540881e-002
 -3.8482905e-002
 -3.5378353e-002
 -5.5225625e-002
 -6.2562928e-002
 -4.2358124e-002
 -4.6933609e-002
 -6.1405426e-002
 -5.2263739e-002
 -2.7513889e-002
 -3.7855310e-002
 -3.5054740e-002
 -4.0774078e-002
 -3.7369379e-002
 -4.6710793e-002
 -4.9074760e-002
 -6.9706035e-002
 -6.6589564e-002
 -4.0494302e-002
 -3.6860682e-002
 -2.9997048e-002
 -3.6951452e-002
 -4.5483001e-002
 -4.4684205e-002
 -4.7787740e-002
 -3.3070699e-002
 -5.5253558e-002
 -5.7392542e-002
 -5.0238135e-002
 -4.3065603e-002
 -5.9730644e-002
 -4.4410502e-002
 -3.6251613e-002
 -4.6405072e-002
 -4.7737801e-002
 -4.6363377e-002
 -4.8651380e-002
 -6.0026160e-002
 -4.1452861e-002
 -3.2960627e-002
 -5.9305668e-002
 -4.7102748e-002
 -2.9340965e-002
 -6.0909694e-002
 -5.5558404e-002
 -3.6047298e-002
 -4.6057833e-002
 -6.2727666e-002
 -5.2367136e-002
 -2.4352254e-002
 -6.2444791e-002
 -6.4064452e-002
 -3.9474249e-002
 -7.0361984e-002
 -7.3266567e-002
 -3.1009202e-002
 -3.1965536e-002
 -6.0597355e-002
 -5.3226470e-002
 -3.8330980e-002
 -6.6586722e-002
 -6.8752547e-002
 -5.0461552e-002
 -6.6968744e-002
 -6.0436301e-002
 -4.3272172e-002
 -5.4965694e-002
 -5.1526090e-002
 -4.8566019e-002
 -5.9156967e-002
 -6.5333756e-002
 -6.4683385e-002
 -5.6761225e-002
 -5.6520366e-002
 -6.1430178e-002
 -5.9040010e-002
 -7.1271416e-002
 -6.5595125e-002
 -6.0944143e-002
 -4.9676603e-002
 -5.6272695e-002
 -5.6534427e-002
 -3.6647836e-002
 -5.3985638e-002
 -6.4529005e-002
 -4.7212819e-002
 -5.9216865e-002
 -8.0562203e-002
 -5.7554745e-002
 -4.1837042e-002
 -5.4222691e-002
 -5.9207552e-002
 -3.7077706e-002
 -5.0053540e-002
 -6.1360766e-002
 -5.5881332e-002
 -6.8092561e-002
 -8.0223523e-002
 -6.8325944e-002
 -8.1740442e-002
 -8.2078393e-002
 -5.9622232e-002
 -5.3418818e-002
 -6.3880503e-002
 -6.6662786e-002
 -5.7259456e-002
 -5.4416367e-002
 -8.3244519e-002
 -6.7287631e-002
 -6.2485334e-002
 -7.8837446e-002
 -7.6485005e-002
 -5.5603733e-002
 -8.0089113e-002
 -7.0652857e-002
 -6.6605009e-002
 -6.5455913e-002
 -7.7801370e-002
 -8.2539292e-002
 -6.0040995e-002
 -7.7040991e-002
 -8.8553896e-002
 -5.6813989e-002
 -5.5175981e-002
 -7.5026898e-002
 -6.8575137e-002
 -1.0031564e-001
 -1.0349746e-001
 -8.1995248e-002
  3.0671661e-002
  2.0129924e-001
  3.5042845e-001
  4.1589678e-001
  4.8932700e-001
  6.2027195e-001
  6.5279554e-001
  5.3885171e-001
  4.0216352e-001
  2.4527757e-001
  1.5455117e-002
 -1.3659246e-001
 -1.5185575e-001
 -1.4816641e-001
 -2.1447493e-001
 -1.8694716e-001
 -9.0641499e-002
 -4.6592804e-002
  2.7760359e-004
  2.7178220e-002
  2.2581574e-003
 -6.2298379e-002
 -8.9460617e-002
 -1.1201067e-001
 -1.2559784e-001
 -1.1337339e-001
 -9.2021531e-002
 -8.3320629e-002
 -9.6791973e-002
 -8.4580409e-002
 -7.4701903e-002
 -9.5617375e-002
 -9.9904148e-002
 -9.0406089e-002
 -1.0282099e-001
 -1.1270569e-001
 -8.8990851e-002
 -9.3338733e-002
 -9.6958775e-002
 -7.9651659e-002
 -6.7177073e-002
 -9.0823371e-002
 -8.9233662e-002
 -6.5017300e-002
 -6.9445529e-002
 -7.7376804e-002
 -7.1333809e-002
 -5.3543247e-002
 -5.2275311e-002
 -4.2484583e-002
 -2.7045320e-002
 -3.9878700e-002
 -2.8340124e-002
 -1.6478435e-002
 -2.3964100e-002
 -2.4763456e-002
  5.3596245e-003
  9.3382550e-003
 -1.3662309e-003
  1.9852401e-002
  4.8232672e-002
  3.7730613e-002
  4.2870384e-002
  5.6369013e-002
  5.0466847e-002
  6.5290472e-002
  7.9482277e-002
  7.5864234e-002
  6.4873966e-002
  7.8952541e-002
  9.1712564e-002
  8.9743507e-002
  9.6208865e-002
  1.1664894e-001
  1.1613543e-001
  1.0569078e-001
  1.3120150e-001
  1.3115076e-001
  1.2498165e-001
  1.4023867e-001
  1.3899743e-001
  1.2682531e-001
  1.3848852e-001
  1.6120041e-001
  1.4775008e-001
  1.3004035e-001
  1.4484926e-001
  1.4841511e-001
  1.3331339e-001
  1.3811547e-001
  1.4744521e-001
  1.1811530e-001
  1.2077812e-001
  1.3665268e-001
  1.3221745e-001
  1.2880846e-001
  1.4184227e-001
  1.2480530e-001
  1.2417565e-001
  1.1838070e-001
  1.2125127e-001
  1.0129744e-001
  1.0549586e-001
  1.2187818e-001
  1.0406912e-001
  1.0414726e-001
  1.2961135e-001
  1.2830870e-001
  1.1578296e-001
  1.3760918e-001
  1.4298127e-001
  1.3472471e-001
  1.4376325e-001
  1.5879443e-001
  1.4285880e-001
  1.4462224e-001
  1.8332712e-001
  1.9214123e-001
  1.9539680e-001
  2.1295849e-001
  2.1424357e-001
  1.9753475e-001
  2.2233422e-001
  2.3214150e-001
  2.1718471e-001
  2.1021641e-001
  2.2582343e-001
  2.2099839e-001
  1.8146724e-001
  1.6752763e-001
  1.4912986e-001
  1.0765025e-001
  9.2530568e-002
  1.0700545e-001
  7.3900372e-002
  2.9282158e-002
  2.3699519e-002
  1.8987827e-002
 -6.1327184e-002
 -1.6304935e-001
 -2.6277138e-001
 -4.3222537e-001
 -5.2664372e-001
 -5.7749219e-001
 -6.5322981e-001
 -6.4341367e-001
 -5.9813507e-001
 -5.3911128e-001
 -4.9333568e-001
 -4.6094929e-001
 -5.1012701e-001
 -6.1694897e-001
 -6.9564083e-001
 -7.5270065e-001
 -8.1015937e-001
 -8.2417568e-001
 -8.0621226e-001
 -8.2118328e-001
 -8.4501716e-001
 -8.3887662e-001
 -8.2530035e-001
 -8.3485036e-001
 -8.3392437e-001
 -8.1993751e-001
 -8.3859358e-001
 -8.4058777e-001
 -8.1246371e-001
 -8.1627275e-001
 -8.3067599e-001
 -8.1871561e-001
 -8.1259783e-001
 -8.0819886e-001
 -7.9243374e-001
 -7.8404361e-001
 -7.8070849e-001
 -7.7508478e-001
 -7.5351188e-001
 -7.4827329e-001
 -7.4170806e-001
 -7.2030412e-001
 -7.1374952e-001
 -7.3267401e-001
 -7.1181614e-001
 -6.9155256e-001
 -6.9228833e-001
 -6.7734936e-001
 -6.5566265e-001
 -6.4827940e-001
 -6.4858911e-001
 -6.2407699e-001
 -6.1824436e-001
 -6.3669981e-001
 -6.1092656e-001
 -5.8479923e-001
 -5.9414034e-001
 -5.8457536e-001
 -5.4402615e-001
 -5.2693858e-001
 -5.3247612e-001
 -5.0188623e-001
 -4.8135947e-001
 -4.9004648e-001
 -4.7472642e-001
 -4.5372147e-001
 -4.4731619e-001
 -4.3998683e-001
 -4.0677532e-001
 -3.9919935e-001
 -3.9904956e-001
 -3.6530062e-001
 -3.4208187e-001
 -3.4476575e-001
 -3.3131090e-001
 -3.1927360e-001
 -3.3106188e-001
 -3.4005428e-001
 -3.1586297e-001
 -3.0341622e-001
 -2.9194637e-001
 -2.5418746e-001
 -2.3987025e-001
 -2.5962087e-001
 -2.3408935e-001
 -2.1249123e-001
 -2.2525355e-001
 -2.1580870e-001
 -1.8562047e-001
 -1.9428661e-001
 -2.0382406e-001
 -1.7784376e-001
 -1.7289088e-001
 -1.7842506e-001
 -1.7713360e-001
 -1.4705607e-001
 -1.4876157e-001
 -1.5699212e-001
 -1.4481330e-001
 -1.4098196e-001
 -1.6244219e-001
 -1.5235448e-001
 -1.6523515e-001
 -1.7367986e-001
 -1.4486808e-001
 -1.3062970e-001
 -1.4460312e-001
 -1.5067485e-001
 -1.3155576e-001
 -1.3453961e-001
 -1.5132092e-001
 -1.4221503e-001
 -1.4447368e-001
 -1.4744232e-001
 -1.4565518e-001
 -1.4356380e-001
 -1.3595279e-001
 -1.4140698e-001
 -1.2590019e-001
 -1.3654984e-001
 -1.4759708e-001
 -1.3067610e-001
 -1.2793115e-001
 -1.2718862e-001
 -1.4410894e-001
 -1.2855350e-001
 -1.3787673e-001
 -1.3402497e-001
 -1.1383586e-001
 -1.2016498e-001
 -1.3980061e-001
 -1.1592852e-001
 -1.0251529e-001
 -1.2005623e-001
 -1.1712065e-001
 -1.0474305e-001
 -1.3612040e-001
 -1.2727465e-001
 -1.0087423e-001
 -1.1135605e-001
 -1.1243883e-001
 -8.8227754e-002
 -1.0119495e-001
 -1.1968723e-001
 -9.8961172e-002
 -9.7274880e-002
 -1.1450599e-001
 -1.1991213e-001
 -9.8307790e-002
 -1.0185488e-001
 -1.0303669e-001
 -8.5315146e-002
 -7.8827508e-002
 -9.3776833e-002
 -9.6476004e-002
 -7.4423478e-002
 -9.6374346e-002
 -9.7034323e-002
 -8.8926560e-002
 -9.7157998e-002
 -9.4767270e-002
 -7.6766908e-002
 -6.9628164e-002
 -8.3228110e-002
 -7.2373315e-002
 -5.5199028e-002
 -6.5315015e-002
 -7.8035314e-002
 -6.8358086e-002
 -8.8176248e-002
 -9.9272626e-002
 -8.5288502e-002
