 -1.5552547e-001
 -2.1218095e-001
 -1.9359540e-001
 -2.0382499e-001
 -1.9545366e-001
 -1.7991249e-001
 -2.0175207e-001
 -2.0447824e-001
 -1.9965923e-001
 -2.3071595e-001
 -2.4165050e-001
 -2.2992534e-001
 -2.3897930e-001
 -2.6740298e-001
 -2.3604526e-001
 -2.2063770e-001
 -2.2590175e-001
 -2.2317420e-001
 -2.2648359e-001
 -2.5796246e-001
 -2.6028813e-001
 -2.5678467e-001
 -2.5571706e-001
 -2.6441841e-001
 -2.4731380e-001
 -2.5172923e-001
 -2.7472845e-001
 -2.5730180e-001
 -2.4712043e-001
 -2.5067151e-001
 -2.4756339e-001
 -2.4188504e-001
 -2.5895058e-001
 -2.6305949e-001
 -2.4438262e-001
 -2.5202620e-001
 -2.5158904e-001
 -2.4455356e-001
 -2.6109740e-001
 -2.7173884e-001
 -2.7885407e-001
 -2.6154955e-001
 -2.6399355e-001
 -2.5082184e-001
 -2.3108944e-001
 -2.3212489e-001
 -2.3245075e-001
 -2.0172293e-001
 -1.7050476e-001
 -2.0287555e-001
 -2.2817790e-001
 -2.2405675e-001
 -2.2173259e-001
 -2.1954251e-001
 -1.5885030e-001
 -1.3180553e-001
 -1.6181735e-001
 -1.6954257e-001
 -1.9250739e-001
 -2.2686553e-001
 -2.0113034e-001
 -1.1824743e-001
 -4.6939612e-002
  3.5472173e-001
  8.5901201e-001
  5.2802088e-001
  1.8538138e-001
  2.1786423e-001
  2.6429978e-001
  2.9127997e-001
  3.1769850e-001
  3.5391611e-001
  3.3476208e-001
  3.2688550e-001
  3.8238401e-001
  4.0954916e-001
  3.7129098e-001
  3.2041283e-001
  2.3684042e-001
  1.0922566e-001
 -3.3132905e-002
 -2.2385174e-001
 -4.0315254e-001
 -4.1912417e-001
 -3.7884613e-001
 -4.0950789e-001
 -4.5957474e-001
 -4.6610229e-001
 -4.2829899e-001
 -4.0149347e-001
 -3.4102156e-001
 -2.9730309e-001
 -3.0863052e-001
 -3.1902578e-001
 -3.1221259e-001
 -3.0272999e-001
 -2.8638238e-001
 -2.6090196e-001
 -2.4204734e-001
 -2.4113167e-001
 -2.1566789e-001
 -1.9512130e-001
 -2.1051356e-001
 -2.0063193e-001
 -1.9181402e-001
 -1.8726108e-001
 -1.9163138e-001
 -1.7878001e-001
 -1.6687388e-001
 -1.6820722e-001
 -1.4968259e-001
 -1.3451300e-001
 -1.4340477e-001
 -1.4805274e-001
 -1.2616937e-001
 -1.1899940e-001
 -1.1313404e-001
 -9.5125063e-002
 -8.1091300e-002
 -9.0142399e-002
 -7.8519675e-002
 -5.6544612e-002
 -4.9971633e-002
 -6.2430432e-002
 -4.9122229e-002
 -3.9730004e-002
 -4.8794494e-002
 -5.0347842e-002
 -4.8964724e-002
 -5.4441488e-002
 -6.6810234e-002
 -6.5608522e-002
 -8.2341464e-002
 -1.0599755e-001
 -1.0452600e-001
 -1.1665588e-001
 -1.4770613e-001
 -1.5228641e-001
 -1.5265669e-001
 -1.8075561e-001
 -1.8413314e-001
 -1.7819850e-001
 -1.9848747e-001
 -2.2468959e-001
 -2.0255682e-001
 -2.1341019e-001
 -2.2692810e-001
 -2.2929254e-001
 -2.2469130e-001
 -2.3220775e-001
 -2.4260785e-001
 -2.2914659e-001
 -2.4081495e-001
 -2.4275514e-001
 -2.2873703e-001
 -2.3859418e-001
 -2.4712885e-001
 -2.4052498e-001
 -2.3324671e-001
 -2.3758256e-001
 -2.3779832e-001
 -2.2446991e-001
 -2.2036866e-001
 -2.3350497e-001
 -2.1496897e-001
 -2.1912929e-001
 -2.3376172e-001
 -2.1993170e-001
 -2.1593665e-001
 -2.3502977e-001
 -2.3700125e-001
 -2.2381723e-001
 -2.4209178e-001
 -2.5231221e-001
 -2.3801889e-001
 -2.4348154e-001
 -2.5681260e-001
 -2.5213231e-001
 -2.4352534e-001
 -2.6926551e-001
 -2.6663784e-001
 -2.5258391e-001
 -2.7481651e-001
 -2.8335434e-001
 -2.7101344e-001
 -2.7549616e-001
 -2.8508714e-001
 -2.7461780e-001
 -2.6794674e-001
 -2.9420063e-001
 -3.0106618e-001
 -2.8384029e-001
 -2.9147096e-001
 -3.0067450e-001
 -2.8436014e-001
 -2.8047154e-001
 -3.0283087e-001
 -2.8842709e-001
 -2.8404677e-001
 -3.0263510e-001
 -3.0042016e-001
 -2.9075524e-001
 -2.9865648e-001
 -3.1100919e-001
 -2.9190525e-001
 -2.9531245e-001
 -3.0167490e-001
 -2.9758181e-001
 -2.8872410e-001
 -2.9653125e-001
 -2.8884526e-001
 -2.7763963e-001
 -2.9205411e-001
 -2.9628728e-001
 -2.8130251e-001
 -2.8665115e-001
 -3.0518602e-001
 -2.9811810e-001
 -2.8390393e-001
 -2.8451952e-001
 -2.7733909e-001
 -2.6196460e-001
 -2.5866871e-001
 -2.4475011e-001
 -1.8579296e-001
 -9.9660838e-002
  1.8565279e-001
  8.2816342e-001
  7.8815222e-001
  2.7963088e-001
  1.9389602e-001
  2.0876574e-001
  2.0173225e-001
  1.9161605e-001
  2.2684683e-001
  2.1998944e-001
  1.9293054e-001
  1.8582460e-001
  1.6812369e-001
  1.0620028e-001
  4.0100815e-002
 -3.3454823e-002
 -1.3481991e-001
 -2.4017798e-001
 -3.6095429e-001
 -4.4671685e-001
 -4.0337912e-001
 -2.9914139e-001
 -2.8596143e-001
 -3.3868808e-001
 -3.6315728e-001
 -3.3603890e-001
 -2.9889150e-001
 -2.8702137e-001
 -3.1105130e-001
 -3.3207620e-001
 -3.4686215e-001
 -3.4426244e-001
 -3.3196930e-001
 -3.4250747e-001
 -3.3270473e-001
 -3.0721471e-001
 -3.0009290e-001
 -2.9571914e-001
 -2.8424274e-001
 -2.8334700e-001
 -2.8572866e-001
 -2.7289321e-001
 -2.6450134e-001
 -2.6950221e-001
 -2.6246191e-001
 -2.4584764e-001
 -2.4455981e-001
 -2.5027488e-001
 -2.2750615e-001
 -2.2894987e-001
 -2.3935042e-001
 -2.1124696e-001
 -1.9648519e-001
 -2.0338872e-001
 -1.9296422e-001
 -1.6092800e-001
 -1.6478582e-001
 -1.5470724e-001
 -1.3536112e-001
 -1.3348836e-001
 -1.3246232e-001
 -1.2120646e-001
 -1.1524521e-001
 -1.3027166e-001
 -1.3041730e-001
 -1.2102884e-001
 -1.2818381e-001
 -1.3826712e-001
 -1.3213114e-001
 -1.3561226e-001
 -1.5899283e-001
 -1.5232127e-001
 -1.4880179e-001
 -1.7860895e-001
 -1.8777702e-001
 -1.8335853e-001
 -1.9845670e-001
 -2.0641879e-001
 -2.0009679e-001
 -2.1397489e-001
 -2.2607323e-001
 -2.1797150e-001
 -2.1980530e-001
 -2.2678112e-001
 -2.2234679e-001
 -2.2689550e-001
 -2.3483356e-001
 -2.3308525e-001
 -2.2355985e-001
 -2.2234010e-001
 -2.3004824e-001
 -2.2300541e-001
 -2.1002196e-001
 -2.3215926e-001
 -2.2401898e-001
 -2.0913851e-001
 -2.2173065e-001
 -2.2651326e-001
 -2.1718174e-001
 -2.1942559e-001
 -2.2981343e-001
 -2.1453424e-001
 -2.1311125e-001
 -2.2510596e-001
 -2.2173603e-001
 -2.1951447e-001
 -2.3746935e-001
 -2.3783292e-001
 -2.2972230e-001
 -2.2883121e-001
 -2.4581126e-001
 -2.4017229e-001
 -2.3441947e-001
 -2.4625854e-001
 -2.5035831e-001
 -2.3920234e-001
 -2.4935971e-001
 -2.6536520e-001
 -2.4847657e-001
 -2.5388924e-001
 -2.6565869e-001
 -2.6686081e-001
 -2.5917591e-001
 -2.6510212e-001
 -2.7136057e-001
 -2.5928782e-001
 -2.6734031e-001
 -2.7292778e-001
 -2.5993435e-001
 -2.6324718e-001
 -2.8961595e-001
 -2.7575144e-001
 -2.6521816e-001
 -2.8286748e-001
 -2.8875592e-001
 -2.6590952e-001
 -2.8002085e-001
 -2.8126669e-001
 -2.5822043e-001
 -2.7205715e-001
 -2.8395508e-001
 -2.6750196e-001
 -2.6651403e-001
 -2.8286070e-001
 -2.7878125e-001
 -2.6322767e-001
 -2.7164978e-001
 -2.6650303e-001
 -2.6542340e-001
 -2.6707146e-001
 -2.7894482e-001
 -2.7009833e-001
 -2.5183426e-001
 -2.6334651e-001
 -2.5498829e-001
 -2.3880150e-001
 -2.3527337e-001
 -2.2060241e-001
 -1.4253133e-001
 -4.2802893e-002
  4.5372415e-001
  9.0796957e-001
  4.4311501e-001
  1.4261342e-001
  1.7718252e-001
  1.7344190e-001
  1.6029715e-001
  1.6371624e-001
  1.6651192e-001
  1.3317617e-001
  1.1426607e-001
  1.1684643e-001
  7.1058441e-002
 -1.5067208e-002
 -1.0997798e-001
 -1.9837564e-001
 -3.0646341e-001
 -4.5956636e-001
 -5.3352022e-001
 -4.8098267e-001
 -4.1468583e-001
 -3.5480370e-001
 -3.3592057e-001
 -3.3124007e-001
 -2.9477558e-001
 -2.5517799e-001
 -2.1954632e-001
 -2.3593752e-001
 -2.7703199e-001
 -3.0173471e-001
 -3.2126604e-001
 -3.1393955e-001
 -2.9067936e-001
 -3.0783202e-001
 -3.0870195e-001
 -2.9962648e-001
 -3.0385440e-001
 -3.1066912e-001
 -2.9448720e-001
 -3.0667122e-001
 -3.1841882e-001
 -3.0992549e-001
 -3.0426881e-001
 -3.1571648e-001
 -3.0351000e-001
 -2.9307687e-001
 -2.9804227e-001
 -2.9760935e-001
 -2.7052891e-001
 -2.7472689e-001
 -2.7411864e-001
 -2.5538030e-001
 -2.4298949e-001
 -2.4488416e-001
 -2.3221522e-001
 -2.0217984e-001
 -2.0883915e-001
 -1.9499228e-001
 -1.6113415e-001
 -1.5462814e-001
 -1.5407381e-001
 -1.3507560e-001
 -1.1952130e-001
 -1.2844330e-001
 -1.2703743e-001
 -1.1255759e-001
 -1.2370782e-001
 -1.3312858e-001
 -1.1952489e-001
 -1.1832063e-001
 -1.3008484e-001
 -1.2904959e-001
 -1.2799358e-001
 -1.4733162e-001
 -1.4792770e-001
 -1.5034388e-001
 -1.7988649e-001
 -1.9545894e-001
 -1.8625439e-001
 -1.9823563e-001
 -2.1668120e-001
 -2.1054825e-001
 -2.2405651e-001
 -2.3069402e-001
 -2.2915276e-001
 -2.1899279e-001
 -2.3682612e-001
 -2.4790576e-001
 -2.3116952e-001
 -2.3015772e-001
 -2.3902558e-001
 -2.3702203e-001
 -2.3876371e-001
 -2.5719080e-001
 -2.5342028e-001
 -2.5035550e-001
 -2.5654629e-001
 -2.5721608e-001
 -2.4086093e-001
 -2.4625542e-001
 -2.7921108e-001
 -2.7843778e-001
 -2.4911906e-001
 -2.5374110e-001
 -2.5579038e-001
 -2.4669362e-001
 -2.6743155e-001
 -2.8975126e-001
 -2.8151531e-001
 -2.7305526e-001
 -2.8461316e-001
 -2.8562368e-001
 -2.9228862e-001
 -2.9776076e-001
 -2.9375386e-001
 -2.7860386e-001
 -2.9674965e-001
 -3.1072121e-001
 -3.0244632e-001
 -3.0373032e-001
 -3.0947192e-001
 -2.9882930e-001
 -2.9171701e-001
 -3.1590103e-001
 -3.1279016e-001
 -2.8921416e-001
 -2.9646954e-001
 -3.0851623e-001
 -2.9736072e-001
 -2.9987736e-001
 -3.0910042e-001
 -3.0400280e-001
 -2.9517006e-001
 -3.0467442e-001
 -3.1066330e-001
 -2.9516552e-001
 -3.0100175e-001
 -3.0216124e-001
 -2.9805856e-001
 -2.9890504e-001
 -3.1480866e-001
 -3.0495722e-001
 -2.9731013e-001
 -3.1436670e-001
 -3.1166729e-001
 -2.8770978e-001
 -2.8141777e-001
 -2.9142854e-001
 -2.7053133e-001
 -2.8028677e-001
 -3.0122890e-001
 -2.8967675e-001
 -2.8497583e-001
 -2.8830779e-001
 -2.9394745e-001
 -2.7117607e-001
 -2.7303003e-001
 -2.6400661e-001
 -2.3404014e-001
 -2.2637818e-001
 -1.7064681e-001
 -2.7057614e-002
  5.0859165e-001
  8.6095968e-001
  3.9720716e-001
  1.5163474e-001
  1.5071218e-001
  1.1654946e-001
  1.2612988e-001
  1.3782243e-001
  1.0914494e-001
  9.0661984e-002
  8.6272409e-002
  5.8693104e-002
  2.8128150e-002
 -3.7340431e-002
 -1.4009378e-001
 -2.4109157e-001
 -3.1920365e-001
 -4.6342041e-001
 -5.9070903e-001
 -5.9721891e-001
 -5.5181362e-001
 -4.9368417e-001
 -4.8234227e-001
 -4.8618241e-001
 -4.8276012e-001
 -4.4139750e-001
 -3.6601703e-001
 -3.1708912e-001
 -3.2052253e-001
 -3.1008959e-001
 -2.9675397e-001
 -2.9260957e-001
 -2.6761016e-001
 -2.4876411e-001
 -2.2670596e-001
 -2.1585398e-001
 -2.1409528e-001
 -2.3856753e-001
 -2.3029458e-001
 -2.0650201e-001
 -1.9897647e-001
 -2.1181977e-001
 -2.2083237e-001
 -2.2699710e-001
 -2.4006924e-001
 -2.4994083e-001
 -2.3839356e-001
 -2.3679017e-001
 -2.4287271e-001
 -2.4802776e-001
 -2.6847972e-001
 -2.7143565e-001
 -2.5361389e-001
 -2.5965292e-001
 -2.6430235e-001
 -2.4774393e-001
 -2.2982293e-001
 -2.3012934e-001
 -2.1904588e-001
 -2.1284505e-001
 -2.1465038e-001
 -2.0711500e-001
 -1.7372862e-001
 -1.4388709e-001
 -1.6084614e-001
 -1.5558238e-001
 -1.3726438e-001
 -1.2111041e-001
 -1.0034056e-001
 -7.7139714e-002
 -8.9851456e-002
 -1.0255780e-001
 -9.0380960e-002
 -8.8776745e-002
 -1.0795219e-001
 -9.8565645e-002
 -8.7103362e-002
 -1.1543932e-001
 -1.2039359e-001
 -1.1243885e-001
 -1.1997807e-001
 -1.3753225e-001
 -1.3660940e-001
 -1.5300188e-001
 -1.7749441e-001
 -1.7449592e-001
 -1.6991801e-001
 -1.9112106e-001
 -1.9896987e-001
 -1.8702228e-001
 -1.9250874e-001
 -2.1582498e-001
 -2.0990725e-001
 -2.1689380e-001
 -2.3429084e-001
 -2.2562606e-001
 -2.1970070e-001
 -2.3129777e-001
 -2.3114895e-001
 -2.2423722e-001
 -2.3723780e-001
 -2.4957468e-001
 -2.3006634e-001
 -2.3539660e-001
 -2.5770734e-001
 -2.4916939e-001
 -2.4237975e-001
 -2.5297709e-001
 -2.5618920e-001
 -2.4655361e-001
 -2.5581202e-001
 -2.5664467e-001
 -2.4636428e-001
 -2.5425031e-001
 -2.5906190e-001
 -2.5800497e-001
 -2.5833676e-001
 -2.7478369e-001
 -2.7374550e-001
 -2.6129366e-001
 -2.7453056e-001
 -2.8205512e-001
 -2.7323003e-001
 -2.7533979e-001
 -2.9552693e-001
 -2.8385870e-001
 -2.8086260e-001
 -2.9471887e-001
 -2.9575749e-001
 -2.7946788e-001
 -2.8996799e-001
 -3.0351633e-001
 -2.9010655e-001
 -2.8643444e-001
 -3.0567363e-001
 -2.9613999e-001
 -2.9463274e-001
 -3.1130101e-001
 -3.1145674e-001
 -2.9846022e-001
 -3.0626848e-001
 -3.1158317e-001
 -2.9426568e-001
 -2.9968733e-001
 -3.1795789e-001
 -3.0824037e-001
 -2.9313225e-001
 -3.1010967e-001
 -3.0864460e-001
 -2.9707118e-001
 -3.0342831e-001
 -3.1830220e-001
 -2.9993438e-001
 -3.0226720e-001
 -3.1556143e-001
 -3.0184874e-001
 -2.9425579e-001
 -3.1649795e-001
 -3.0267425e-001
 -2.9459776e-001
 -2.9847732e-001
 -2.9783703e-001
 -3.0104676e-001
 -2.9462484e-001
 -3.0292391e-001
 -3.0481664e-001
 -2.8822243e-001
 -3.0609168e-001
 -2.9658675e-001
 -2.6838017e-001
 -2.7760372e-001
 -2.7859061e-001
 -2.4794284e-001
 -2.1192514e-001
 -1.4554922e-001
  5.4380530e-002
  6.4900048e-001
  8.1316645e-001
  3.1574449e-001
  1.3628506e-001
  1.3954059e-001
  1.3656285e-001
  1.5294014e-001
  1.6168197e-001
  1.6544636e-001
  1.6816338e-001
  1.4035171e-001
  1.1775464e-001
  9.8479136e-002
  6.5141496e-002
 -1.1900024e-004
 -9.0502621e-002
 -1.6623390e-001
 -2.6553418e-001
 -3.8245661e-001
 -5.0230413e-001
 -5.6342000e-001
 -5.2560320e-001
 -4.6708490e-001
 -4.4630139e-001
 -4.4684237e-001
 -4.4359284e-001
 -4.1175962e-001
 -3.8876592e-001
 -3.5289542e-001
 -2.9270710e-001
 -2.8090791e-001
 -3.1783810e-001
 -3.2212387e-001
 -3.2076693e-001
 -3.2501562e-001
 -3.2565423e-001
 -2.9989127e-001
 -2.9057754e-001
 -2.8901272e-001
 -2.7586274e-001
 -2.8062977e-001
 -2.6717181e-001
 -2.5572485e-001
 -2.4451025e-001
 -2.4874968e-001
 -2.3613758e-001
 -2.2641692e-001
 -2.2684632e-001
 -2.3086314e-001
 -2.0976277e-001
 -1.8251063e-001
 -1.8048955e-001
 -1.7403910e-001
 -1.7708402e-001
 -2.0826031e-001
 -2.2868943e-001
 -2.3163240e-001
 -2.5055652e-001
 -2.5237822e-001
 -2.3795268e-001
 -2.2945501e-001
 -2.4024729e-001
 -2.3030350e-001
 -2.1971988e-001
 -2.1799278e-001
 -2.0404519e-001
 -1.9158530e-001
 -1.8841123e-001
 -1.8692326e-001
 -1.6868222e-001
 -1.6489382e-001
 -1.6712258e-001
 -1.5336893e-001
 -1.4492342e-001
 -1.5223698e-001
 -1.5949498e-001
 -1.5372729e-001
 -1.5216548e-001
 -1.6992809e-001
 -1.6616146e-001
 -1.7458526e-001
 -2.0298893e-001
 -2.0057450e-001
 -1.9776097e-001
 -2.1502193e-001
 -2.2204363e-001
 -2.1304230e-001
 -2.1659154e-001
 -2.4444162e-001
 -2.4520286e-001
 -2.4404537e-001
 -2.5925673e-001
 -2.5840706e-001
 -2.4841477e-001
 -2.5082875e-001
 -2.6492197e-001
 -2.5433281e-001
 -2.5057842e-001
 -2.7173893e-001
 -2.7132086e-001
 -2.7546857e-001
 -2.8739873e-001
 -2.7900347e-001
 -2.7402878e-001
 -2.8592949e-001
 -2.8629641e-001
 -2.7088919e-001
 -2.8296812e-001
 -2.9256207e-001
 -2.9026150e-001
 -2.9596038e-001
 -3.0886777e-001
 -3.0085957e-001
 -2.8877537e-001
 -2.9840537e-001
 -3.0822036e-001
 -3.0259679e-001
 -3.1256988e-001
 -3.2278480e-001
 -3.0421788e-001
 -3.1685759e-001
 -3.2419664e-001
 -3.2648360e-001
 -3.0685206e-001
 -3.2818822e-001
 -3.3039907e-001
 -3.1686962e-001
 -3.2523321e-001
 -3.3597445e-001
 -3.3841137e-001
 -3.1966814e-001
 -3.3912852e-001
 -3.4050093e-001
 -3.1570661e-001
 -3.3862015e-001
 -3.3702100e-001
 -3.3127888e-001
 -3.3555368e-001
 -3.3992582e-001
 -3.2608120e-001
 -3.2759096e-001
 -3.4619378e-001
 -3.3970054e-001
 -3.1964903e-001
 -3.3487137e-001
 -3.4059956e-001
 -3.2382329e-001
 -3.3224286e-001
 -3.4566558e-001
 -3.3180737e-001
 -3.1767797e-001
 -3.3722959e-001
 -3.3365222e-001
 -3.2511743e-001
 -3.2589924e-001
 -3.3197158e-001
 -3.1370449e-001
 -3.2689670e-001
 -3.3627215e-001
 -3.1726037e-001
 -3.0500872e-001
 -3.1498655e-001
 -3.1788001e-001
 -2.9771298e-001
 -3.0880741e-001
 -3.0659030e-001
 -2.9117265e-001
 -2.7268463e-001
 -2.6721731e-001
 -2.1123700e-001
 -9.6705620e-002
  2.6513998e-001
  8.6482107e-001
  6.0644924e-001
  1.2820400e-001
  1.0884772e-001
  1.1587150e-001
  1.0952091e-001
  1.0401165e-001
  1.2007528e-001
  1.1772013e-001
  7.2458785e-002
  6.5096181e-002
  7.1706403e-002
  1.0616862e-002
 -5.5318634e-002
 -1.1714522e-001
 -2.1408243e-001
 -3.2649917e-001
 -4.2761574e-001
 -5.5655969e-001
 -6.2076633e-001
 -5.5734341e-001
 -4.8483565e-001
 -4.5563842e-001
 -4.5891421e-001
 -4.4790429e-001
 -4.3085695e-001
 -3.9844896e-001
 -3.2300295e-001
 -2.8704972e-001
 -3.2596482e-001
 -3.3806554e-001
 -3.3602112e-001
 -3.5545800e-001
 -3.4348783e-001
 -3.1544333e-001
 -2.9870945e-001
 -3.0996634e-001
 -3.0560128e-001
 -2.8740521e-001
 -2.8478995e-001
 -2.8633504e-001
 -2.6529204e-001
 -2.7008273e-001
 -2.6449240e-001
 -2.5544223e-001
 -2.5864956e-001
 -2.6101648e-001
 -2.5316775e-001
 -2.3607907e-001
 -2.4435633e-001
 -2.4232436e-001
 -2.1620586e-001
 -2.1703157e-001
 -2.1065932e-001
 -1.9671874e-001
 -1.9912285e-001
 -1.9719784e-001
 -1.7989666e-001
 -1.5525552e-001
 -1.5289472e-001
 -1.5028786e-001
 -1.3772158e-001
 -1.4152202e-001
 -1.3736918e-001
 -1.2875415e-001
 -1.1392013e-001
 -1.1859617e-001
 -8.9021869e-002
 -7.6738902e-002
 -9.0361274e-002
 -8.8880452e-002
 -7.5113069e-002
 -8.4498901e-002
 -8.5909870e-002
 -8.2851041e-002
 -9.5649699e-002
 -1.2495339e-001
 -1.2945095e-001
 -1.3513490e-001
 -1.7410434e-001
 -1.9820191e-001
 -1.9750790e-001
 -2.1516336e-001
 -2.2947467e-001
 -2.1770379e-001
 -2.4091326e-001
 -2.6458835e-001
 -2.4950264e-001
 -2.5658602e-001
 -2.5833081e-001
 -2.6383424e-001
 -2.5033822e-001
 -2.6280578e-001
 -2.7331875e-001
 -2.6678485e-001
 -2.6753385e-001
 -2.7720529e-001
 -2.7356392e-001
 -2.7494687e-001
 -2.9593416e-001
 -2.8788793e-001
 -2.8126103e-001
 -3.0295727e-001
 -2.9452685e-001
 -2.9167167e-001
 -2.8960482e-001
 -3.1031343e-001
 -3.0575965e-001
 -3.0210418e-001
 -3.1885519e-001
 -3.2479694e-001
 -3.1474175e-001
 -3.3667466e-001
 -3.3950949e-001
 -3.2950178e-001
 -3.2782087e-001
 -3.3530855e-001
 -3.3000185e-001
 -3.2664169e-001
 -3.4014532e-001
 -3.3700252e-001
 -3.2911246e-001
 -3.4331315e-001
 -3.4341027e-001
 -3.2921581e-001
 -3.2912261e-001
 -3.4015532e-001
 -3.3334129e-001
 -3.2762797e-001
 -3.4124756e-001
 -3.4288339e-001
 -3.2821834e-001
 -3.3193066e-001
 -3.4154085e-001
 -3.3463201e-001
 -3.3486561e-001
 -3.3747796e-001
 -3.2232261e-001
 -3.1939538e-001
 -3.2600187e-001
 -3.1558739e-001
 -3.1380963e-001
 -3.3459863e-001
 -3.2874290e-001
 -3.1890946e-001
 -3.2638282e-001
 -3.1171679e-001
 -2.9764380e-001
 -2.8873244e-001
 -3.0949032e-001
 -3.0769687e-001
 -2.7527098e-001
 -2.8710311e-001
 -2.9675066e-001
 -2.8323262e-001
 -2.9011188e-001
 -2.9572131e-001
 -2.8506072e-001
 -2.8049872e-001
 -2.7958379e-001
 -2.7049699e-001
 -2.4692142e-001
 -1.8713431e-001
 -6.3458435e-002
  4.3059310e-001
  9.3881805e-001
  5.2454848e-001
  1.4784252e-001
  1.5628103e-001
  1.4455939e-001
  1.4664552e-001
  1.5206021e-001
  1.3783014e-001
  1.1222470e-001
  1.1493259e-001
  1.1999882e-001
  7.8618263e-002
  3.2485495e-002
 -2.1143897e-002
 -1.3832978e-001
 -2.3722556e-001
 -3.3530717e-001
 -4.8749249e-001
 -5.7760136e-001
 -5.2308413e-001
 -4.5871405e-001
 -4.6004388e-001
 -4.6882814e-001
 -4.4877567e-001
 -4.1867877e-001
 -3.4541782e-001
 -2.7037408e-001
 -2.9671929e-001
 -3.1767877e-001
 -3.1637339e-001
 -3.1983355e-001
 -3.1499620e-001
 -2.7368505e-001
 -2.4341466e-001
 -2.5831575e-001
 -2.4612237e-001
 -2.3662222e-001
 -2.4159049e-001
 -2.4157588e-001
 -2.1631948e-001
 -2.2615291e-001
 -2.2829846e-001
 -2.0189526e-001
 -1.9875586e-001
 -1.9156643e-001
 -1.8720857e-001
 -1.6947109e-001
 -1.7825318e-001
 -1.8450797e-001
 -1.6473925e-001
 -1.6043570e-001
 -1.4519426e-001
 -1.2485485e-001
 -1.1101222e-001
 -1.1410984e-001
 -1.0482690e-001
 -9.3216034e-002
 -8.8524551e-002
 -8.6286232e-002
 -6.5646301e-002
 -6.6647461e-002
 -6.3526551e-002
 -4.3759875e-002
 -2.7777920e-002
 -3.2603662e-002
 -3.1787741e-002
 -1.7602697e-002
 -3.5911203e-002
 -4.4106171e-002
 -1.1190405e-002
 -1.0564062e-002
 -2.9686411e-002
 -3.5486095e-002
 -4.5865744e-002
 -6.3878997e-002
 -9.3088645e-002
 -9.5931047e-002
 -1.0846664e-001
 -1.1335216e-001
 -1.2158841e-001
 -1.3897843e-001
 -1.6535956e-001
 -1.6853890e-001
 -1.8139722e-001
 -1.9945446e-001
 -1.9992370e-001
 -1.8738392e-001
 -1.9732657e-001
 -1.9205359e-001
 -1.8196351e-001
 -1.8838055e-001
 -2.1411727e-001
 -2.0751751e-001
 -1.9628267e-001
 -2.0212023e-001
 -1.9724493e-001
 -1.9972728e-001
 -2.1662756e-001
 -2.1410405e-001
 -1.9435097e-001
 -2.0382634e-001
 -2.2695223e-001
 -2.2990954e-001
 -2.2317173e-001
 -2.3499409e-001
 -2.4612022e-001
 -2.4401394e-001
 -2.4564395e-001
 -2.5126173e-001
 -2.4906590e-001
 -2.6122567e-001
 -2.6584595e-001
 -2.5753697e-001
 -2.5526197e-001
 -2.5921000e-001
 -2.5817015e-001
 -2.6453241e-001
 -2.6984974e-001
 -2.6795220e-001
 -2.6592665e-001
 -2.6850227e-001
 -2.7764304e-001
 -2.5963620e-001
 -2.5714289e-001
 -2.8075339e-001
 -2.7241457e-001
 -2.7251809e-001
 -2.6345073e-001
 -2.7102323e-001
 -2.5922925e-001
 -2.5693916e-001
 -2.6877150e-001
 -2.5651546e-001
 -2.5494727e-001
 -2.6333440e-001
 -2.5137648e-001
 -2.4371687e-001
 -2.5902911e-001
 -2.5741084e-001
 -2.5270028e-001
 -2.4993153e-001
 -2.7374097e-001
 -2.6333333e-001
 -2.5503384e-001
 -2.6341179e-001
 -2.5994017e-001
 -2.4859621e-001
 -2.4826992e-001
 -2.5939565e-001
 -2.5280669e-001
 -2.5065795e-001
 -2.6372100e-001
 -2.5001574e-001
 -2.4121409e-001
 -2.5267137e-001
 -2.4340844e-001
 -2.2078644e-001
 -2.2241439e-001
 -2.1614808e-001
 -1.1319342e-001
  9.9829064e-002
  7.5385595e-001
  8.7525851e-001
  2.9940989e-001
  1.5807849e-001
  1.8629466e-001
  1.9635781e-001
  1.8579648e-001
  1.9542166e-001
  1.9238589e-001
  1.4566834e-001
  1.3166745e-001
  1.2802668e-001
  8.2879955e-002
 -1.7028992e-002
 -1.1004303e-001
 -2.1153827e-001
 -3.4669460e-001
 -4.9536009e-001
 -5.8444576e-001
 -5.4688050e-001
 -4.9525736e-001
 -4.6062845e-001
 -4.4609160e-001
 -4.3338181e-001
 -3.8549634e-001
 -3.0380584e-001
 -2.6804597e-001
 -2.8910163e-001
 -2.8570375e-001
 -3.0429614e-001
 -3.0985027e-001
 -2.7798176e-001
 -2.5346791e-001
 -2.6296474e-001
 -2.5860793e-001
 -2.3782673e-001
 -2.4262252e-001
 -2.5218642e-001
 -2.2739379e-001
 -2.3035833e-001
 -2.4932506e-001
 -2.2488576e-001
 -2.1434254e-001
 -2.3193574e-001
 -2.1459538e-001
 -1.9321726e-001
 -2.1780441e-001
 -2.1614696e-001
 -1.9382938e-001
 -1.8779108e-001
 -1.7839202e-001
 -1.6288057e-001
 -1.5571171e-001
 -1.6264721e-001
 -1.4033016e-001
 -1.2253821e-001
 -1.2306853e-001
 -1.0745132e-001
 -7.9476244e-002
 -8.4792987e-002
 -9.7901827e-002
 -7.0835445e-002
 -7.9580508e-002
 -8.3234430e-002
 -5.6072421e-002
 -4.7962673e-002
 -6.4949040e-002
 -6.7961199e-002
 -5.9609471e-002
 -6.5218794e-002
 -9.3712522e-002
 -9.4045664e-002
 -9.4905249e-002
 -1.2723517e-001
 -1.3898313e-001
 -1.3319927e-001
 -1.4507718e-001
 -1.6885241e-001
 -1.6309043e-001
 -1.7032532e-001
 -1.7804977e-001
 -1.7665757e-001
 -1.7684050e-001
 -1.9543372e-001
 -1.9347686e-001
 -1.8499772e-001
 -2.0823958e-001
 -2.1968129e-001
 -2.0219018e-001
 -2.0905771e-001
 -2.1371654e-001
 -2.0789267e-001
 -2.0536262e-001
 -2.1785927e-001
 -2.1046526e-001
 -2.0065069e-001
 -2.2548654e-001
 -2.3815240e-001
 -2.1978969e-001
 -2.2805381e-001
 -2.4840984e-001
 -2.4343446e-001
 -2.2651585e-001
 -2.3052516e-001
 -2.2270552e-001
 -2.1424296e-001
 -2.3142459e-001
 -2.1824786e-001
 -1.9381121e-001
 -2.0031208e-001
 -2.3471392e-001
 -2.2489211e-001
 -2.2147104e-001
 -2.3443187e-001
 -2.4236791e-001
 -2.4032585e-001
 -2.6994099e-001
 -2.9685837e-001
 -2.7960722e-001
 -2.8298444e-001
 -3.0402221e-001
 -2.9145273e-001
 -2.7986955e-001
 -3.0903992e-001
 -3.1047627e-001
 -2.9533456e-001
 -3.1663459e-001
 -3.1654528e-001
 -2.9521504e-001
 -3.1265634e-001
 -3.1669700e-001
 -2.9988203e-001
 -3.0408103e-001
 -3.1169612e-001
 -3.0275746e-001
 -2.9924988e-001
 -3.1692404e-001
 -3.1026786e-001
 -2.9651771e-001
 -2.9594401e-001
 -3.0335357e-001
 -3.0598423e-001
 -2.9714536e-001
 -3.0031489e-001
 -2.9625235e-001
 -2.8197771e-001
 -2.9995742e-001
 -3.0243689e-001
 -2.8458564e-001
 -2.9586779e-001
 -2.9513094e-001
 -2.8658873e-001
 -2.8462814e-001
 -2.8096787e-001
 -2.6895276e-001
 -2.4882676e-001
 -2.5548831e-001
 -2.2093814e-001
 -1.3620490e-001
  1.6426096e-001
  7.3851013e-001
  5.3328767e-001
  1.2445014e-001
  1.3179469e-001
  1.5352434e-001
  1.5436766e-001
  1.5500727e-001
  1.6511613e-001
  1.4064202e-001
  1.3047437e-001
  1.3678644e-001
  1.1886008e-001
  7.2057970e-002
 -1.8598307e-002
 -1.1278642e-001
 -2.0199538e-001
 -3.2269028e-001
 -4.6879252e-001
 -4.5647830e-001
 -3.7619397e-001
 -3.6360716e-001
 -3.6260051e-001
 -3.7429115e-001
 -3.9622591e-001
 -3.8426777e-001
 -3.3966632e-001
 -3.2073495e-001
 -3.2953913e-001
 -3.2197541e-001
 -3.3286909e-001
 -3.5485214e-001
 -3.5283734e-001
 -3.3753285e-001
 -3.2651400e-001
 -3.2282119e-001
 -2.8829481e-001
 -2.9738035e-001
 -3.0476928e-001
 -2.7886642e-001
 -2.7143152e-001
 -2.8863724e-001
 -2.6238777e-001
 -2.5977387e-001
 -2.7751663e-001
 -2.7251234e-001
 -2.5369109e-001
 -2.5840990e-001
 -2.5861649e-001
 -2.3813882e-001
 -2.3773894e-001
 -2.4103150e-001
 -2.1966948e-001
 -2.1398633e-001
 -2.0786531e-001
 -1.8757998e-001
 -1.7087740e-001
 -1.8061550e-001
 -1.6813597e-001
 -1.3994689e-001
 -1.4206888e-001
 -1.4176434e-001
 -1.1519916e-001
 -1.0940293e-001
 -1.2627645e-001
 -1.1258706e-001
 -9.5492782e-002
 -1.0949799e-001
 -1.1277259e-001
 -1.0612012e-001
 -1.0668781e-001
 -1.2644879e-001
 -1.2510055e-001
 -1.2621196e-001
 -1.4356357e-001
 -1.5045164e-001
 -1.4533290e-001
 -1.6499155e-001
 -1.8081162e-001
 -1.7267017e-001
 -1.8299458e-001
 -1.9502305e-001
 -1.8473173e-001
 -1.9080875e-001
 -2.0750059e-001
 -1.9521123e-001
 -1.8189712e-001
 -2.0308986e-001
 -2.0575355e-001
 -1.8936945e-001
 -2.0506763e-001
 -2.0728936e-001
 -2.0245834e-001
 -2.0096033e-001
 -2.1565986e-001
 -2.0442185e-001
 -1.9353527e-001
 -2.1378828e-001
 -2.2061295e-001
 -2.0094620e-001
 -2.0837997e-001
 -2.2139267e-001
 -2.0507255e-001
 -2.0891305e-001
 -2.1764619e-001
 -2.1575054e-001
 -2.0936830e-001
 -2.1571078e-001
 -2.2303691e-001
 -2.1106849e-001
 -2.2105982e-001
 -2.3838593e-001
 -2.2467829e-001
 -2.2367765e-001
 -2.4241268e-001
 -2.3526588e-001
 -2.2433307e-001
 -2.3703801e-001
 -2.4656083e-001
 -2.2806939e-001
 -2.3588646e-001
 -2.5144183e-001
 -2.4851322e-001
 -2.4449502e-001
 -2.6051009e-001
 -2.5328187e-001
 -2.4027936e-001
 -2.5728621e-001
 -2.6584694e-001
 -2.5530626e-001
 -2.6436159e-001
 -2.7992925e-001
 -2.7108570e-001
 -2.7095380e-001
 -2.7124015e-001
 -2.4678755e-001
 -2.2904968e-001
 -2.4581401e-001
 -2.3559241e-001
 -2.1360247e-001
 -2.1565587e-001
 -2.2630220e-001
 -2.3374096e-001
 -2.2353135e-001
 -2.3669441e-001
 -2.3045590e-001
 -2.2912179e-001
 -2.4912012e-001
 -2.6594885e-001
 -2.6215178e-001
 -2.6399725e-001
 -2.7260342e-001
 -2.5824130e-001
 -2.6124300e-001
 -2.7233906e-001
 -2.6044341e-001
 -2.5408792e-001
 -2.6755328e-001
 -2.6584698e-001
 -2.3326147e-001
 -2.2475039e-001
 -1.6852900e-001
 -8.2569084e-002
  3.9371077e-001
  8.1126648e-001
  3.5251948e-001
  1.2244049e-001
  1.7353992e-001
  1.9363994e-001
  2.4176871e-001
  2.6772503e-001
  2.9508274e-001
  3.1144363e-001
  3.3348295e-001
  3.6344603e-001
  3.8594602e-001
  4.0365781e-001
  3.7620120e-001
  2.7226293e-001
  1.9530420e-001
  9.0038731e-002
 -9.8850529e-002
 -1.5512345e-001
 -1.2750458e-001
 -1.4631657e-001
 -1.6896740e-001
 -2.0975784e-001
 -3.0040776e-001
 -3.4406015e-001
 -3.4964083e-001
 -3.7020546e-001
 -4.0488634e-001
 -3.8506546e-001
 -3.6476968e-001
 -3.8660021e-001
 -4.0247595e-001
 -3.9704832e-001
 -3.9503022e-001
 -3.9354189e-001
 -3.5210475e-001
 -3.3181219e-001
 -3.4746264e-001
 -3.2698584e-001
 -3.2202650e-001
 -3.3276597e-001
 -3.1383609e-001
 -3.1121757e-001
 -3.1918381e-001
 -3.2174989e-001
 -3.0457307e-001
 -3.0545050e-001
 -2.9844745e-001
 -2.7779924e-001
 -2.8482520e-001
 -2.9755162e-001
 -2.8234815e-001
 -2.6285530e-001
 -2.7297195e-001
 -2.5161952e-001
 -2.2587031e-001
 -2.0724321e-001
 -2.1043185e-001
 -1.9246691e-001
 -1.6343497e-001
 -1.6831384e-001
 -1.5608450e-001
 -1.4210696e-001
 -1.3988387e-001
 -1.4326108e-001
 -1.3066954e-001
 -1.3412024e-001
 -1.5557145e-001
 -1.4433808e-001
 -1.4323896e-001
 -1.6771070e-001
 -1.6018063e-001
 -1.5120652e-001
 -1.7986941e-001
 -1.8959421e-001
 -1.7098258e-001
 -1.8830300e-001
 -2.1442590e-001
 -2.0971857e-001
 -2.1907451e-001
 -2.3508629e-001
 -2.2389088e-001
 -2.1613129e-001
 -2.1741649e-001
 -2.3098675e-001
 -2.2496497e-001
 -2.3996592e-001
 -2.4723258e-001
 -2.2132710e-001
 -2.2953457e-001
 -2.4704983e-001
 -2.3329012e-001
 -2.2480989e-001
 -2.3261719e-001
 -2.2836167e-001
 -2.1084702e-001
 -2.2137832e-001
 -2.4743434e-001
 -2.2783754e-001
 -2.1929786e-001
 -2.3851351e-001
 -2.4524373e-001
 -2.3773805e-001
 -2.5843588e-001
 -2.4656276e-001
 -2.3034271e-001
 -2.4696799e-001
 -2.6441370e-001
 -2.4739446e-001
 -2.5224163e-001
 -2.6780059e-001
 -2.5949314e-001
 -2.6248445e-001
 -2.7970100e-001
 -2.8001216e-001
 -2.7343614e-001
 -2.8544842e-001
 -2.9400767e-001
 -2.7556387e-001
 -2.7136489e-001
 -2.8601551e-001
 -2.7318808e-001
 -2.7028131e-001
 -2.8916949e-001
 -3.0573026e-001
 -2.8941090e-001
 -2.8799668e-001
 -3.0808178e-001
 -3.0762115e-001
 -2.8964672e-001
 -3.0549486e-001
 -3.0359704e-001
 -2.8996299e-001
 -2.9059035e-001
 -2.9989384e-001
 -2.8324743e-001
 -2.8447174e-001
 -3.0889359e-001
 -2.7852096e-001
 -2.7322592e-001
 -2.9856045e-001
 -2.7572469e-001
 -2.8288337e-001
 -2.9921915e-001
 -3.0403745e-001
 -2.8698514e-001
 -3.0411507e-001
 -3.2134099e-001
 -2.9489625e-001
 -2.8793796e-001
 -2.9892988e-001
 -2.9239721e-001
 -2.6695160e-001
 -2.6078152e-001
 -2.4794494e-001
 -2.2550870e-001
 -2.2348954e-001
 -2.0004923e-001
 -1.6052198e-001
 -1.1855467e-001
  6.1048261e-002
  7.4194545e-001
  8.2953393e-001
  2.6428087e-001
  1.5037055e-001
  1.7602095e-001
  1.3109351e-001
  1.0956275e-001
  1.5182435e-001
  1.4793471e-001
  1.2007058e-001
  1.3926017e-001
  1.6256814e-001
  1.1854775e-001
  8.4182423e-002
  5.0385045e-002
 -1.8857420e-002
 -1.0982357e-001
 -2.3789886e-001
 -3.7815816e-001
 -4.1449981e-001
 -3.5424273e-001
 -3.3571536e-001
 -3.8516235e-001
 -4.2302953e-001
 -4.1254704e-001
 -3.6706407e-001
 -3.2214022e-001
 -2.7795744e-001
 -3.0280402e-001
 -3.4175046e-001
 -3.4333325e-001
 -3.2316777e-001
 -3.2336908e-001
 -3.0320640e-001
 -2.7253539e-001
 -2.6969651e-001
 -2.6407461e-001
 -2.4741681e-001
 -2.4425165e-001
 -2.4323829e-001
 -2.3200573e-001
 -2.0590363e-001
 -2.1681117e-001
 -2.1499735e-001
 -2.0674388e-001
 -2.0024425e-001
 -2.0370626e-001
 -1.9627917e-001
 -1.7219592e-001
 -1.6477164e-001
 -1.4057415e-001
 -1.2032814e-001
 -1.4272901e-001
 -1.2365693e-001
 -1.0811785e-001
 -1.0111560e-001
 -1.0258938e-001
 -8.2513043e-002
 -6.3843890e-002
 -6.7794216e-002
 -5.5085036e-002
 -4.1921372e-002
 -4.7489095e-002
 -4.5604110e-002
 -2.9255420e-002
 -5.1857865e-002
 -6.8539222e-002
 -5.0228168e-002
 -5.7190161e-002
 -8.1908198e-002
 -9.9878690e-002
 -1.0658346e-001
 -1.2848948e-001
 -1.4108426e-001
 -1.3508241e-001
 -1.5628367e-001
 -1.6619119e-001
 -1.6454448e-001
 -1.7248563e-001
 -1.9118195e-001
 -1.9409555e-001
 -1.9577626e-001
 -2.1725296e-001
 -2.2356883e-001
 -2.0808030e-001
 -2.0488115e-001
 -2.2264032e-001
 -2.1020911e-001
 -2.0810252e-001
 -2.2068232e-001
 -2.1806748e-001
 -2.1048226e-001
 -2.3116832e-001
 -2.3341924e-001
 -2.1827083e-001
 -2.2660764e-001
 -2.4423229e-001
 -2.3583341e-001
 -2.2173090e-001
 -2.2627528e-001
 -2.2607668e-001
 -2.3142877e-001
 -2.4896574e-001
 -2.5854666e-001
 -2.3017623e-001
 -2.4143929e-001
 -2.5241505e-001
 -2.2481047e-001
 -2.3747673e-001
 -2.4985298e-001
 -2.5780242e-001
 -2.4467249e-001
 -2.7403898e-001
 -2.8503168e-001
 -2.6664915e-001
 -2.7951558e-001
 -2.8563815e-001
 -2.7356235e-001
 -2.6920597e-001
 -2.9855395e-001
 -3.0240570e-001
 -2.8829941e-001
 -2.8595230e-001
 -2.9656305e-001
 -2.9368342e-001
 -3.0122454e-001
 -3.1819418e-001
 -3.0343471e-001
 -2.9963365e-001
 -3.2693024e-001
 -3.1758732e-001
 -2.9898479e-001
 -3.1668707e-001
 -3.2715406e-001
 -3.0602152e-001
 -3.1726283e-001
 -3.2723138e-001
 -3.1488201e-001
 -3.1380612e-001
 -3.2519645e-001
 -3.2754626e-001
 -3.2122284e-001
 -3.3409669e-001
 -3.3767690e-001
 -3.2372973e-001
 -3.3334821e-001
 -3.5256283e-001
 -3.3960735e-001
 -3.4672572e-001
 -3.5533391e-001
 -3.5152543e-001
 -3.4128866e-001
 -3.5822999e-001
 -3.6009624e-001
 -3.4588963e-001
 -3.5052806e-001
 -3.5716518e-001
 -3.3638231e-001
 -3.2518611e-001
 -3.4438059e-001
 -3.2856790e-001
 -3.2146480e-001
 -3.2366001e-001
 -3.0045502e-001
 -2.5204021e-001
 -1.9115877e-001
  4.2693568e-003
  6.1478396e-001
  6.8649465e-001
  1.7841946e-001
  8.3771114e-002
  1.0995822e-001
  1.0109814e-001
  1.0204221e-001
  1.3233543e-001
  1.0102570e-001
  4.7168591e-002
  4.9810102e-002
  4.5102709e-002
 -3.2226745e-003
 -5.1612286e-002
 -1.1348741e-001
 -2.1543714e-001
 -2.8637442e-001
 -3.7791171e-001
 -5.1127354e-001
 -5.8211598e-001
 -5.0322303e-001
 -4.3477253e-001
 -4.1794897e-001
 -4.3408135e-001
 -4.4689875e-001
 -4.6532413e-001
 -4.3695143e-001
 -3.7026060e-001
 -3.5287057e-001
 -3.9617081e-001
 -4.0631361e-001
 -4.1811939e-001
 -4.4995326e-001
 -4.4159830e-001
 -4.3042630e-001
 -4.3540944e-001
 -4.2121584e-001
 -3.9427709e-001
 -3.9416797e-001
 -3.9657525e-001
 -3.7476266e-001
 -3.7619678e-001
 -3.7712774e-001
 -3.5875037e-001
 -3.4656522e-001
 -3.6568859e-001
 -3.4895545e-001
 -3.3289347e-001
 -3.3368137e-001
 -3.3414796e-001
 -3.3611523e-001
 -3.1527124e-001
 -3.2273374e-001
 -3.1098517e-001
 -2.8700134e-001
 -2.9806669e-001
 -2.9484570e-001
 -2.6727533e-001
 -2.6885707e-001
 -2.7815439e-001
 -2.4334103e-001
 -2.4216201e-001
 -2.5119460e-001
 -2.2993733e-001
 -2.2672763e-001
 -2.2906576e-001
 -2.1257884e-001
 -2.0290400e-001
 -2.0573129e-001
 -2.0838159e-001
 -1.9714696e-001
 -2.0416307e-001
 -2.2017351e-001
 -2.1414373e-001
 -2.0134205e-001
 -2.2680528e-001
 -2.2457995e-001
 -2.3574955e-001
 -2.4380793e-001
 -2.5636170e-001
 -2.5145087e-001
 -2.5768095e-001
 -2.8646357e-001
 -2.8339955e-001
 -2.8696113e-001
 -3.0784085e-001
 -3.2098971e-001
 -2.9895219e-001
 -3.0950598e-001
 -3.2984067e-001
 -3.2172972e-001
 -3.1905644e-001
 -3.3425852e-001
 -3.3671041e-001
 -3.2246689e-001
 -3.3165048e-001
 -3.4159972e-001
 -3.3133577e-001
 -3.3240221e-001
 -3.3783224e-001
 -3.3512195e-001
 -3.3137487e-001
 -3.3753033e-001
 -3.4112478e-001
 -3.1216320e-001
 -3.3743795e-001
 -3.4160357e-001
 -3.2569599e-001
 -3.2086755e-001
 -3.3247271e-001
 -3.2716961e-001
 -3.2169487e-001
 -3.3560480e-001
 -3.3685633e-001
 -3.3251370e-001
 -3.3899397e-001
 -3.4389125e-001
 -3.4176403e-001
 -3.4683047e-001
 -3.5073340e-001
 -3.3637135e-001
 -3.4783951e-001
 -3.6229407e-001
 -3.7266181e-001
 -3.5123863e-001
 -3.6914459e-001
 -3.6142009e-001
 -3.5512894e-001
 -3.5928865e-001
 -3.7434573e-001
 -3.5795289e-001
 -3.6824965e-001
 -3.8949130e-001
 -3.7977657e-001
 -3.7660117e-001
 -3.8481061e-001
 -3.9669219e-001
 -3.7261073e-001
 -3.8268421e-001
 -3.9553469e-001
 -3.8121258e-001
 -3.7220237e-001
 -3.9736902e-001
 -3.8794660e-001
 -3.7463338e-001
 -3.8769486e-001
 -4.0215862e-001
 -3.8428627e-001
 -3.8876635e-001
 -4.0522242e-001
 -3.9308519e-001
 -3.9161924e-001
 -4.0625566e-001
 -4.0468551e-001
 -3.9705602e-001
 -3.9790391e-001
 -3.9412983e-001
 -3.7435936e-001
 -3.8309620e-001
 -3.9971770e-001
 -3.9383691e-001
 -3.8687400e-001
 -3.9739511e-001
 -3.7982196e-001
 -3.8533084e-001
 -3.9261598e-001
 -3.8645591e-001
 -3.7345281e-001
 -3.8847552e-001
 -3.9461450e-001
 -3.7480113e-001
 -3.7066702e-001
 -3.7721215e-001
 -3.4817866e-001
 -3.1238608e-001
 -2.5980500e-001
 -4.5377459e-002
  5.7723198e-001
  5.8170228e-001
  9.4861787e-002
  4.3532250e-002
  3.9468971e-002
  1.6179681e-002
  1.5714188e-002
  2.8219118e-002
  4.7868733e-003
 -3.1055464e-002
 -2.6048949e-002
 -2.7501660e-002
 -6.5036636e-002
 -9.1986198e-002
 -1.4563160e-001
 -2.5441962e-001
 -3.8275505e-001
 -4.7375368e-001
 -6.1805317e-001
 -7.1991675e-001
 -6.4828059e-001
 -5.6707813e-001
 -5.1114541e-001
 -4.9276485e-001
 -5.0475806e-001
 -5.1510595e-001
 -4.8439700e-001
 -4.0657916e-001
 -3.7425089e-001
 -3.9488586e-001
 -4.1079832e-001
 -4.3943328e-001
 -4.4824847e-001
 -4.3762756e-001
 -4.3681154e-001
 -4.4477622e-001
 -4.4109814e-001
 -4.2356182e-001
 -4.2968532e-001
 -4.2533386e-001
 -4.1639863e-001
 -4.2304156e-001
 -4.2070729e-001
 -4.1194541e-001
 -3.9800129e-001
 -4.1599886e-001
 -4.0448846e-001
 -3.9735164e-001
 -4.0506861e-001
 -3.8616547e-001
 -3.6590636e-001
 -3.6139703e-001
 -3.7620942e-001
 -3.3895087e-001
 -3.3987114e-001
 -3.3423940e-001
 -3.1725800e-001
 -2.8812941e-001
 -2.9099110e-001
 -2.7844777e-001
 -2.4729310e-001
 -2.4503887e-001
 -2.4810682e-001
 -2.1490186e-001
 -2.0017971e-001
 -2.1668176e-001
 -2.0356110e-001
 -1.7809992e-001
 -2.0323537e-001
 -1.9903366e-001
 -1.6966834e-001
 -1.8039417e-001
 -2.0195912e-001
 -2.0800868e-001
 -2.0133880e-001
 -2.2488234e-001
 -2.2277902e-001
 -2.1679298e-001
 -2.4898670e-001
 -2.5478707e-001
 -2.5060950e-001
 -2.6909945e-001
 -2.8374243e-001
 -2.7335152e-001
 -2.8110261e-001
 -2.8989853e-001
 -2.9309757e-001
 -2.8399469e-001
 -2.9942178e-001
 -3.1057535e-001
 -2.9592371e-001
 -3.0409541e-001
 -3.2778536e-001
 -3.0860063e-001
 -3.0572432e-001
 -3.3543448e-001
 -3.2366232e-001
 -3.1261757e-001
 -3.2620470e-001
 -3.2955867e-001
 -3.1018176e-001
 -3.2183665e-001
 -3.4468804e-001
 -3.1800134e-001
 -3.2004225e-001
 -3.3511379e-001
 -3.2274606e-001
 -3.2815548e-001
 -3.4354401e-001
 -3.4070672e-001
 -3.2352945e-001
 -3.3566744e-001
 -3.6059446e-001
 -3.5199037e-001
 -3.4880005e-001
 -3.6680369e-001
 -3.5048655e-001
 -3.4167937e-001
 -3.5945319e-001
 -3.6433373e-001
 -3.5794447e-001
 -3.7290280e-001
 -3.8808362e-001
 -3.6240257e-001
 -3.7195835e-001
 -3.8411844e-001
 -3.6734734e-001
 -3.6312563e-001
 -3.7171207e-001
 -3.7941001e-001
 -3.7252264e-001
 -3.8549180e-001
 -3.8670257e-001
 -3.7255770e-001
 -3.8305892e-001
 -3.9413042e-001
 -3.8979948e-001
 -3.6917213e-001
 -3.7918766e-001
 -3.7572130e-001
 -3.6282790e-001
 -3.8642521e-001
 -3.9968743e-001
 -3.6809033e-001
 -3.5335773e-001
 -3.5638000e-001
 -3.6266181e-001
 -3.6655416e-001
 -3.7915077e-001
 -3.7186153e-001
 -3.4982897e-001
 -3.5154206e-001
 -3.5574894e-001
 -3.4810518e-001
 -3.5306387e-001
 -3.7376877e-001
 -3.6283158e-001
 -3.4940155e-001
 -3.6226357e-001
 -3.5384537e-001
 -3.3796414e-001
 -3.5682039e-001
 -3.5570510e-001
 -3.3812823e-001
 -3.1817547e-001
 -3.1714585e-001
 -2.9453538e-001
 -2.6095997e-001
 -2.1442713e-001
  1.9620334e-002
  6.6002037e-001
  6.7228535e-001
  1.6540039e-001
  1.0228378e-001
  1.1799240e-001
  9.3253535e-002
  9.3283716e-002
  1.0581962e-001
  7.6607696e-002
  4.0846288e-002
  4.6211404e-002
  1.8211089e-002
 -3.1294252e-002
 -7.5838456e-002
 -1.7037614e-001
 -2.9862065e-001
 -4.0684618e-001
 -5.4299423e-001
 -6.8858014e-001
 -6.9085447e-001
 -6.0005362e-001
 -5.4398663e-001
 -5.5046900e-001
 -5.3313474e-001
 -5.0567334e-001
 -4.5425966e-001
 -3.6382421e-001
 -3.4427957e-001
 -3.6224220e-001
 -3.3707124e-001
 -3.1917855e-001
 -3.2907349e-001
 -3.3007101e-001
 -2.9006984e-001
 -2.5125265e-001
 -2.4220602e-001
 -2.2813683e-001
 -2.2368820e-001
 -2.3471486e-001
 -2.3441090e-001
 -2.2140535e-001
 -2.1891878e-001
 -2.5362887e-001
 -2.5299331e-001
 -2.5586540e-001
 -2.7179882e-001
 -2.7721213e-001
 -2.6650551e-001
 -2.8519469e-001
 -2.7496232e-001
 -2.5160713e-001
 -2.5309902e-001
 -2.7961366e-001
 -2.7022971e-001
 -2.5528363e-001
 -2.4380824e-001
 -2.2294677e-001
 -2.0398184e-001
 -2.0287446e-001
 -1.8729235e-001
 -1.3710605e-001
 -1.2300695e-001
 -1.3208673e-001
 -1.3227402e-001
 -1.1060980e-001
 -9.4933107e-002
 -8.3733037e-002
 -8.3014852e-002
 -1.0376122e-001
 -1.0777906e-001
 -9.4452882e-002
 -1.0971700e-001
 -1.2206713e-001
 -1.1788302e-001
 -1.2933352e-001
 -1.4511882e-001
 -1.4432670e-001
 -1.4805187e-001
 -1.7207463e-001
 -1.8182387e-001
 -1.8558815e-001
 -2.1201806e-001
 -2.2428916e-001
 -1.9033821e-001
 -2.0580690e-001
 -2.2311809e-001
 -2.1031951e-001
 -2.1259728e-001
 -2.3811059e-001
 -2.4545771e-001
 -2.2218502e-001
 -2.2966637e-001
 -2.3540155e-001
 -2.3713378e-001
 -2.3450058e-001
 -2.5619733e-001
 -2.3272834e-001
 -2.2943489e-001
 -2.5573625e-001
 -2.5234451e-001
 -2.3419052e-001
 -2.3946101e-001
 -2.5679030e-001
 -2.5020066e-001
 -2.5488653e-001
 -2.6626907e-001
 -2.6703995e-001
 -2.4439377e-001
 -2.5664425e-001
 -2.7015835e-001
 -2.6708570e-001
 -2.7354886e-001
 -2.6984864e-001
 -2.7438826e-001
 -2.7303050e-001
 -2.9134176e-001
 -2.8459140e-001
 -2.7648763e-001
 -2.9650632e-001
 -2.9678646e-001
 -2.7979880e-001
 -2.8358039e-001
 -3.0691801e-001
 -2.8760001e-001
 -2.8114052e-001
 -2.9380254e-001
 -2.9628690e-001
 -2.8688568e-001
 -2.9974537e-001
 -2.9559657e-001
 -2.8525303e-001
 -2.9284661e-001
 -3.0974123e-001
 -2.9797353e-001
 -2.9426415e-001
 -2.9798365e-001
 -2.9157971e-001
 -2.8124553e-001
 -2.9725658e-001
 -3.0313785e-001
 -2.8732248e-001
 -2.9458265e-001
 -2.9368965e-001
 -2.9907487e-001
 -2.9956055e-001
 -3.0689953e-001
 -3.0502114e-001
 -2.9035797e-001
 -2.9576134e-001
 -2.9032165e-001
 -2.7418170e-001
 -2.8126069e-001
 -2.9342854e-001
 -2.7697352e-001
 -2.8386934e-001
 -2.9557219e-001
 -2.7987904e-001
 -2.5786226e-001
 -2.5641326e-001
 -2.3068420e-001
 -1.4140241e-001
  7.7433196e-002
  7.1578875e-001
  6.5429517e-001
  1.6159152e-001
  1.2840382e-001
  1.5672521e-001
  1.6991571e-001
  1.5749207e-001
  1.5502402e-001
  1.3765996e-001
  1.0480648e-001
  8.2465319e-002
  3.9925505e-002
 -3.8391040e-002
 -1.4165320e-001
 -2.5785036e-001
 -3.7571397e-001
 -5.4004005e-001
 -6.4885231e-001
 -6.1215380e-001
 -5.5361366e-001
 -5.2835284e-001
 -5.0541535e-001
 -4.8132891e-001
 -4.4997127e-001
 -3.7984714e-001
 -3.0855046e-001
 -3.2449137e-001
 -3.4349261e-001
 -3.3543885e-001
 -3.4487040e-001
 -3.4438280e-001
 -3.2030590e-001
 -3.0497031e-001
 -3.1406191e-001
 -2.9514775e-001
 -2.8968823e-001
 -3.0151470e-001
 -2.8771689e-001
 -2.6849010e-001
 -2.7211095e-001
 -2.7676380e-001
 -2.6257232e-001
 -2.5630106e-001
 -2.6996072e-001
 -2.6359034e-001
 -2.4866266e-001
 -2.5824977e-001
 -2.4687387e-001
 -2.2976655e-001
 -2.3727289e-001
 -2.3199588e-001
 -2.0866555e-001
 -2.0067202e-001
 -2.1220882e-001
 -1.8149318e-001
 -1.5612406e-001
 -1.6050295e-001
 -1.4196609e-001
 -1.0952022e-001
 -1.1425011e-001
 -1.1767903e-001
 -8.2234253e-002
 -7.2048526e-002
 -7.4140882e-002
 -5.1450931e-002
 -4.3073898e-002
 -8.2791262e-002
 -7.9116977e-002
 -7.1191193e-002
 -9.4290829e-002
 -1.1279110e-001
 -1.1174566e-001
 -1.5407213e-001
 -1.9115371e-001
 -1.8640446e-001
 -1.9673327e-001
 -2.2014524e-001
 -2.2801122e-001
 -2.2829354e-001
 -2.4538728e-001
 -2.5640629e-001
 -2.5229849e-001
 -2.5510012e-001
 -2.8088815e-001
 -2.7144460e-001
 -2.7637867e-001
 -3.0378756e-001
 -2.8280975e-001
 -2.7691486e-001
 -2.9811298e-001
 -3.0625831e-001
 -2.8845235e-001
 -2.9260412e-001
 -3.0934322e-001
 -3.0212576e-001
 -3.0401045e-001
 -3.1899029e-001
 -3.1092984e-001
 -3.0286397e-001
 -3.1052106e-001
 -3.2334028e-001
 -3.1558886e-001
 -3.1642678e-001
 -3.3720595e-001
 -3.2027418e-001
 -3.1725749e-001
 -3.4374468e-001
 -3.4137575e-001
 -3.4041835e-001
 -3.5417976e-001
 -3.6533941e-001
 -3.5271299e-001
 -3.5429859e-001
 -3.7213783e-001
 -3.6858599e-001
 -3.5375286e-001
 -3.8225652e-001
 -3.8956895e-001
 -3.7284172e-001
 -3.6918064e-001
 -3.8260121e-001
 -3.6944482e-001
 -3.6364270e-001
 -3.9018135e-001
 -3.7864906e-001
 -3.7056773e-001
 -3.7363088e-001
 -3.8031730e-001
 -3.6943829e-001
 -3.9429798e-001
 -4.0156518e-001
 -3.7822997e-001
 -3.7105102e-001
 -3.8443630e-001
 -3.8787175e-001
 -3.7475786e-001
 -3.8492513e-001
 -3.8973487e-001
 -3.7460559e-001
 -3.7894063e-001
 -3.9761754e-001
 -3.7819608e-001
 -3.7680031e-001
 -3.9249773e-001
 -3.7537870e-001
 -3.8246692e-001
 -3.9247052e-001
 -3.7448745e-001
 -3.5347228e-001
 -3.5834025e-001
 -3.7828767e-001
 -3.5846837e-001
 -3.6204790e-001
 -3.7064699e-001
 -3.4980434e-001
 -3.3945034e-001
 -3.4589562e-001
 -3.3121036e-001
 -2.7860017e-001
 -2.0450962e-001
  1.8158357e-001
  7.0844595e-001
  3.5800740e-001
  3.7407233e-002
  7.2571799e-002
  8.1084150e-002
  7.2768086e-002
  7.2781831e-002
  5.6775656e-002
  1.8721833e-002
  5.4705214e-003
 -3.8073372e-002
 -1.1430795e-001
 -2.3342251e-001
 -3.5419629e-001
 -4.6707640e-001
 -6.3199776e-001
 -7.3337733e-001
 -6.5877374e-001
 -5.6156082e-001
 -5.4723681e-001
 -5.2886132e-001
 -5.1447804e-001
 -4.7181257e-001
 -3.8051300e-001
 -3.6000828e-001
 -3.9816753e-001
 -4.1649036e-001
 -4.0124587e-001
 -3.8893866e-001
 -3.9006985e-001
 -3.6429964e-001
 -3.4806492e-001
 -3.6128245e-001
 -3.5000799e-001
 -3.3804739e-001
 -3.3227638e-001
 -3.4037543e-001
 -3.1898470e-001
 -3.1860344e-001
 -3.2779457e-001
 -3.0853805e-001
 -3.0919431e-001
 -3.1834755e-001
 -3.0844547e-001
 -2.9700334e-001
 -3.0652789e-001
 -2.9852713e-001
 -2.6723537e-001
 -2.7899917e-001
 -2.7338782e-001
 -2.5482278e-001
 -2.3795767e-001
 -2.3807293e-001
 -2.1575496e-001
 -2.0292269e-001
 -2.0616949e-001
 -1.9323724e-001
 -1.7834235e-001
 -1.7841615e-001
 -1.7766906e-001
 -1.6593242e-001
 -1.5643275e-001
 -1.6630930e-001
 -1.5813435e-001
 -1.5064273e-001
 -1.7169871e-001
 -1.7310196e-001
 -1.6144415e-001
 -1.8345424e-001
 -2.0950266e-001
 -1.9877566e-001
 -2.0631827e-001
 -2.3569302e-001
 -2.3444790e-001
 -2.3234550e-001
 -2.6534382e-001
 -2.6966014e-001
 -2.7165876e-001
 -2.8246169e-001
 -3.0240247e-001
 -2.9393068e-001
 -3.0495220e-001
 -3.1904014e-001
 -3.1897534e-001
 -3.0865715e-001
 -3.2228398e-001
 -3.2286322e-001
 -3.0224886e-001
 -3.1682784e-001
 -3.3077614e-001
 -3.2906880e-001
 -3.3562340e-001
 -3.4675352e-001
 -3.3249483e-001
 -3.2346142e-001
 -3.3403742e-001
 -3.4442091e-001
 -3.3637331e-001
 -3.4844732e-001
 -3.6356388e-001
 -3.4331017e-001
 -3.4828549e-001
 -3.5963839e-001
 -3.5374832e-001
 -3.4960345e-001
 -3.6472323e-001
 -3.7072865e-001
 -3.6576765e-001
 -3.8100185e-001
 -4.0729105e-001
 -3.8983292e-001
 -3.6886049e-001
 -3.6870319e-001
 -3.6953797e-001
 -3.5062869e-001
 -3.4149254e-001
 -3.3632910e-001
 -3.0929209e-001
 -3.3362052e-001
 -3.3952912e-001
 -3.3341267e-001
 -3.2985758e-001
 -3.5298826e-001
 -3.3873489e-001
 -3.3956942e-001
 -3.5702442e-001
 -3.7915931e-001
 -3.7992327e-001
 -4.0120595e-001
 -4.1150286e-001
 -3.9481865e-001
 -3.9224956e-001
 -4.0813780e-001
 -4.0001945e-001
 -4.0095633e-001
 -4.1309234e-001
 -4.0471274e-001
 -3.9777881e-001
 -4.0016575e-001
 -4.1146496e-001
 -4.0148893e-001
 -3.9302155e-001
 -4.0566537e-001
 -4.0541803e-001
 -3.9367143e-001
 -3.9095911e-001
 -3.9821310e-001
 -3.7916178e-001
 -3.9322432e-001
 -4.0115810e-001
 -3.7287925e-001
 -3.7589493e-001
 -3.9599422e-001
 -3.9268717e-001
 -3.7379896e-001
 -3.5873773e-001
 -3.3847108e-001
 -2.5560435e-001
 -1.3422935e-001
  4.0660637e-001
  5.7670564e-001
  1.0884332e-001
  2.2684401e-002
  6.7066194e-002
  8.9896044e-002
  9.3549088e-002
  1.0182687e-001
  1.1211825e-001
  8.1688099e-002
  1.0302480e-001
  1.2693087e-001
  7.5119284e-002
  7.7316491e-003
 -8.3662648e-002
 -1.8019195e-001
 -3.0433675e-001
 -4.7543181e-001
 -5.6568836e-001
 -5.2653578e-001
 -4.8946035e-001
 -4.9311863e-001
 -5.0195051e-001
 -5.2697288e-001
 -5.0861185e-001
 -4.8258524e-001
 -4.6840691e-001
 -4.5267156e-001
 -4.4879570e-001
 -4.6041467e-001
 -4.9321240e-001
 -4.7564533e-001
 -4.7106191e-001
 -4.5837271e-001
 -4.4098073e-001
 -4.1448739e-001
 -4.0983070e-001
 -3.9724770e-001
 -3.8073666e-001
 -3.8967082e-001
 -3.9186775e-001
 -3.7234376e-001
 -3.5897083e-001
 -3.7593875e-001
 -3.7554851e-001
 -3.4816894e-001
 -3.6555464e-001
 -3.5992381e-001
 -3.4279404e-001
 -3.5134776e-001
 -3.4977499e-001
 -3.2415324e-001
 -3.2206438e-001
 -3.1761269e-001
 -2.9656838e-001
 -2.9288173e-001
 -2.9975676e-001
 -2.7223593e-001
 -2.2856831e-001
 -2.2698916e-001
 -2.2707528e-001
 -2.1628878e-001
 -2.0712205e-001
 -2.2473476e-001
 -2.0675317e-001
 -1.9793888e-001
 -2.0606963e-001
 -2.0363175e-001
 -1.8714694e-001
 -2.0336593e-001
 -1.9463509e-001
 -1.8652985e-001
 -2.0320762e-001
 -2.2070940e-001
 -2.1957749e-001
 -2.4228489e-001
 -2.4705885e-001
 -2.5745856e-001
 -2.5055674e-001
 -2.6580331e-001
 -2.7524575e-001
 -2.6555920e-001
 -2.6984643e-001
 -2.7611899e-001
 -2.9196080e-001
 -2.9031538e-001
 -3.0892036e-001
 -2.9578590e-001
 -2.8262994e-001
 -2.9263511e-001
 -3.0728328e-001
 -3.0295201e-001
 -2.8781470e-001
 -3.1353822e-001
 -2.9296261e-001
 -2.7664265e-001
 -2.8540523e-001
 -2.7963621e-001
 -2.6792008e-001
 -2.7752194e-001
 -2.8857235e-001
 -2.8844829e-001
 -3.0621704e-001
 -3.0496029e-001
 -3.0434933e-001
 -3.0637552e-001
 -3.1345331e-001
 -2.9034574e-001
 -2.7941120e-001
 -3.0986593e-001
 -3.1678109e-001
 -3.0875095e-001
 -3.2438296e-001
 -3.2026102e-001
 -3.1194732e-001
 -2.9456686e-001
 -3.0813890e-001
 -3.1706864e-001
 -3.0850488e-001
 -3.2438096e-001
 -3.3816543e-001
 -3.2511323e-001
 -3.2602188e-001
 -3.4055255e-001
 -3.3580697e-001
 -3.1566805e-001
 -3.1424538e-001
 -3.0433249e-001
 -2.9325475e-001
 -3.1607847e-001
 -3.2225868e-001
 -3.0641809e-001
 -3.0178909e-001
 -3.2103353e-001
 -3.2398734e-001
 -3.4026817e-001
 -3.6383695e-001
 -3.4699106e-001
 -2.9801380e-001
 -2.9376018e-001
 -3.0625098e-001
 -2.9488051e-001
 -3.0668939e-001
 -3.0667805e-001
 -2.9007468e-001
 -2.9774460e-001
 -3.1922453e-001
 -3.2623978e-001
 -3.0205549e-001
 -3.1374670e-001
 -3.2524904e-001
 -3.0595902e-001
 -2.8632835e-001
 -2.8987062e-001
 -2.5557478e-001
 -2.3695261e-001
 -2.4376434e-001
 -2.2088605e-001
 -2.0451921e-001
 -2.2167751e-001
 -2.2456408e-001
 -2.0920554e-001
 -1.9582314e-001
 -1.8695314e-001
 -1.0040291e-001
  9.1600642e-002
  6.9987378e-001
  8.4628172e-001
  3.2652442e-001
  1.6156030e-001
  1.6780935e-001
  1.9145013e-001
  1.9614815e-001
  2.0300564e-001
  2.2369869e-001
  2.3147426e-001
  2.4323065e-001
  2.5332080e-001
  2.4378329e-001
  1.8508875e-001
  1.2310718e-001
  4.9604188e-002
 -6.2401843e-002
 -2.4796117e-001
 -4.2886860e-001
 -4.7373909e-001
 -4.4741322e-001
 -4.3788807e-001
 -4.6138875e-001
 -5.1203906e-001
 -5.1175573e-001
 -4.5280161e-001
 -3.8977634e-001
 -3.6629121e-001
 -3.7388579e-001
 -3.8081262e-001
 -3.9138074e-001
 -3.8354721e-001
 -3.6051929e-001
 -3.5958400e-001
 -3.5002327e-001
 -3.2740768e-001
 -3.1588848e-001
 -3.2582557e-001
 -3.0669798e-001
 -2.8494964e-001
 -2.9646457e-001
 -2.9448281e-001
 -2.6080966e-001
 -2.6501111e-001
 -2.7192702e-001
 -2.4778463e-001
 -2.4552033e-001
 -2.6011782e-001
 -2.3877612e-001
 -2.2268749e-001
 -2.3495864e-001
 -2.2644361e-001
 -2.1408677e-001
 -2.1708119e-001
 -2.0846045e-001
 -1.9258147e-001
 -1.7779366e-001
 -1.7463949e-001
 -1.5748634e-001
 -1.4409638e-001
 -1.4278484e-001
 -1.3824379e-001
 -1.1660859e-001
 -1.3052786e-001
 -1.3278412e-001
 -1.1910243e-001
 -1.2664797e-001
 -1.4756749e-001
 -1.3970283e-001
 -1.4099576e-001
 -1.5980862e-001
 -1.6785659e-001
 -1.6286397e-001
 -1.9199392e-001
 -1.9965388e-001
 -1.9749730e-001
 -2.1714644e-001
 -2.4700599e-001
 -2.4165038e-001
 -2.3824674e-001
 -2.5760061e-001
 -2.6503456e-001
 -2.5080098e-001
 -2.6662989e-001
 -2.8680121e-001
 -2.8036653e-001
 -2.8043635e-001
 -2.9467963e-001
 -2.8986410e-001
 -2.8415574e-001
 -3.0804669e-001
 -2.9921277e-001
 -2.8350583e-001
 -2.9918813e-001
 -3.0267271e-001
 -2.8587200e-001
 -2.9054859e-001
 -3.0066108e-001
 -2.9156642e-001
 -2.9192035e-001
 -3.0182807e-001
 -2.9673344e-001
 -2.8017374e-001
 -2.9844029e-001
 -3.0286308e-001
 -2.8610758e-001
 -2.9395722e-001
 -3.1123927e-001
 -2.9319625e-001
 -2.9525949e-001
 -3.0967425e-001
 -3.1346567e-001
 -2.8900558e-001
 -3.0972895e-001
 -3.1723950e-001
 -3.0211809e-001
 -3.1373285e-001
 -3.3131983e-001
 -3.2530162e-001
 -3.2087864e-001
 -3.3239046e-001
 -3.4239825e-001
 -3.2462765e-001
 -3.3968353e-001
 -3.5077869e-001
 -3.4533139e-001
 -3.5233368e-001
 -3.6405483e-001
 -3.5764580e-001
 -3.5287782e-001
 -3.7155169e-001
 -3.6706034e-001
 -3.6236751e-001
 -3.6937301e-001
 -3.8270202e-001
 -3.6162072e-001
 -3.6706124e-001
 -3.7845023e-001
 -3.6438837e-001
 -3.6413546e-001
 -3.7816462e-001
 -3.7237890e-001
 -3.6224508e-001
 -3.7701583e-001
 -3.8747011e-001
 -3.6788790e-001
 -3.6831220e-001
 -3.8226698e-001
 -3.7833712e-001
 -3.7199380e-001
 -3.7828083e-001
 -3.7822615e-001
 -3.6850822e-001
 -3.7424323e-001
 -3.7915884e-001
 -3.6682300e-001
 -3.7420005e-001
 -3.8345716e-001
 -3.6927997e-001
 -3.5142718e-001
 -3.6544431e-001
 -3.6848577e-001
 -3.5805761e-001
 -3.5291502e-001
 -3.5707051e-001
 -2.5414539e-001
 -1.1863547e-001
  3.7187371e-001
  8.9073227e-001
  4.5608850e-001
  6.8402523e-002
  1.0066935e-001
  1.3505918e-001
  1.1870101e-001
  1.3729691e-001
  1.7449282e-001
  1.2556188e-001
  8.5942510e-002
  9.1250097e-002
  2.7346431e-002
 -6.3066328e-002
 -1.4619532e-001
 -2.3917472e-001
 -3.4463055e-001
 -4.5018781e-001
 -5.8122143e-001
 -6.3022476e-001
 -5.6704260e-001
 -4.6405598e-001
 -4.1646048e-001
 -4.4734170e-001
 -4.6161323e-001
 -4.4273597e-001
 -4.2696639e-001
 -3.9517761e-001
 -3.9661333e-001
 -4.3678496e-001
 -4.6018057e-001
 -4.5074170e-001
 -4.6386091e-001
 -4.6430611e-001
 -4.4309924e-001
 -4.3198636e-001
 -4.3397663e-001
 -4.2936243e-001
 -4.0813739e-001
 -4.0988054e-001
 -4.1229682e-001
 -3.9278537e-001
 -3.8625220e-001
 -3.9017215e-001
 -3.8196159e-001
 -3.7209239e-001
 -3.8020020e-001
 -3.7177668e-001
 -3.5565244e-001
 -3.4546341e-001
 -3.5719590e-001
 -3.4393761e-001
 -3.3162924e-001
 -3.4306207e-001
 -3.2844744e-001
 -3.0635468e-001
 -3.1102163e-001
 -3.0548995e-001
 -2.7820726e-001
 -2.7090198e-001
 -2.7087082e-001
 -2.5430845e-001
 -2.3787389e-001
 -2.5150545e-001
 -2.4018964e-001
 -2.2557001e-001
 -2.3144416e-001
 -2.2987793e-001
 -2.1433102e-001
 -2.1170220e-001
 -2.3201922e-001
 -2.2189289e-001
 -2.2251339e-001
 -2.4720637e-001
 -2.4731316e-001
 -2.3837563e-001
 -2.6166143e-001
 -2.7924952e-001
 -2.6888073e-001
 -2.8311599e-001
 -2.9512572e-001
 -2.9430948e-001
 -2.9722220e-001
 -3.0907935e-001
 -3.1178700e-001
 -3.0625220e-001
 -3.2103709e-001
 -3.2632893e-001
 -3.2057106e-001
 -3.2037226e-001
 -3.2494864e-001
 -3.2184814e-001
 -3.0773871e-001
 -3.2508701e-001
 -3.1899969e-001
 -3.0990710e-001
 -3.2053093e-001
 -3.2385697e-001
 -3.1428482e-001
 -3.1816041e-001
 -3.2444213e-001
 -3.0907167e-001
 -3.0843652e-001
 -3.2308805e-001
 -3.1916853e-001
 -3.1401074e-001
 -3.3035742e-001
 -3.3897741e-001
 -3.3120659e-001
 -3.3434245e-001
 -3.3984777e-001
 -3.3181323e-001
 -3.2307029e-001
 -3.4264460e-001
 -3.5732517e-001
 -3.3969774e-001
 -3.4780698e-001
 -3.5381383e-001
 -3.4853222e-001
 -3.5083998e-001
 -3.6690926e-001
 -3.5714419e-001
 -3.5076242e-001
 -3.6578090e-001
 -3.7181272e-001
 -3.6302038e-001
 -3.7847196e-001
 -3.8506587e-001
 -3.7338483e-001
 -3.7539763e-001
 -3.8651478e-001
 -3.7552284e-001
 -3.6979415e-001
 -3.8472759e-001
 -3.8295103e-001
 -3.7961990e-001
 -3.8210977e-001
 -3.8895521e-001
 -3.8004462e-001
 -3.8535124e-001
 -3.9651013e-001
 -3.8356696e-001
 -3.7586255e-001
 -3.9367326e-001
 -3.9413304e-001
 -3.7531614e-001
 -3.9090097e-001
 -4.0524764e-001
 -3.8289171e-001
 -3.8793127e-001
 -4.0511710e-001
 -3.8854198e-001
 -3.8497956e-001
 -3.9654270e-001
 -3.9384571e-001
 -3.8092722e-001
 -3.8854173e-001
 -3.9606657e-001
 -3.7872922e-001
 -3.8140673e-001
 -3.8683504e-001
 -3.7670825e-001
 -3.6095195e-001
 -3.6900934e-001
 -3.5307017e-001
 -3.3194864e-001
 -2.7680538e-001
 -1.7304074e-001
  3.0564051e-001
  7.3506576e-001
  3.3419020e-001
  4.4537920e-002
  5.6725416e-002
  4.6020587e-002
  4.4074961e-002
  5.9665052e-002
  7.8784214e-002
  5.8383010e-002
  5.0939266e-002
  3.9934164e-002
 -6.2051107e-003
 -4.5743501e-002
 -1.1136930e-001
 -2.2060285e-001
 -3.2320326e-001
 -4.4397417e-001
 -6.1631566e-001
 -6.8956764e-001
 -6.1616778e-001
 -5.4890422e-001
 -5.1493154e-001
 -4.9678706e-001
 -4.7956008e-001
 -4.7491165e-001
 -4.4734833e-001
 -3.8039801e-001
 -3.6739803e-001
 -4.0627937e-001
 -4.1001270e-001
 -4.3107995e-001
 -4.6680080e-001
 -4.4843826e-001
 -4.3909240e-001
 -4.4437263e-001
 -4.3377542e-001
 -4.2113739e-001
 -4.2799838e-001
 -4.3019330e-001
 -4.1227694e-001
 -4.1153137e-001
 -4.0977017e-001
 -3.9556999e-001
 -3.9915115e-001
 -4.1522982e-001
 -4.0187825e-001
 -3.9218936e-001
 -4.0243877e-001
 -3.9825666e-001
 -3.9270988e-001
 -3.8816179e-001
 -3.7081845e-001
 -3.5195851e-001
 -3.4014393e-001
 -3.4459562e-001
 -3.3358223e-001
 -3.0527520e-001
 -3.0745790e-001
 -3.0478470e-001
 -2.7514253e-001
 -2.6917397e-001
 -2.6920291e-001
 -2.5072273e-001
 -2.4367308e-001
 -2.5449982e-001
 -2.4044696e-001
 -2.2246611e-001
 -2.2200106e-001
 -2.1323712e-001
 -1.9150974e-001
 -1.9054953e-001
 -2.1576756e-001
 -2.0018980e-001
 -1.9901074e-001
 -2.0652025e-001
 -2.1035048e-001
 -1.9521664e-001
 -2.2501855e-001
 -2.3317205e-001
 -2.3468309e-001
 -2.5233974e-001
 -2.6337740e-001
 -2.6385885e-001
 -2.6401085e-001
 -2.8425517e-001
 -2.7212232e-001
 -2.5695834e-001
 -2.6813941e-001
 -2.7325346e-001
 -2.7403682e-001
 -2.8709749e-001
 -3.0373540e-001
 -2.9347170e-001
 -2.8707285e-001
 -2.8660817e-001
 -2.9300404e-001
 -2.9112492e-001
 -3.0371546e-001
 -3.0553277e-001
 -2.9526441e-001
 -2.9561475e-001
 -3.1061026e-001
 -2.9612401e-001
 -2.9065480e-001
 -3.0208381e-001
 -3.0587904e-001
 -2.8529489e-001
 -2.9453879e-001
 -3.0904187e-001
 -3.0422919e-001
 -3.0260173e-001
 -2.9442950e-001
 -2.8183416e-001
 -2.8929944e-001
 -3.2684088e-001
 -3.1816940e-001
 -3.1538638e-001
 -3.2484577e-001
 -3.1493413e-001
 -3.0049335e-001
 -3.1862102e-001
 -3.4123508e-001
 -3.2774246e-001
 -3.1860207e-001
 -3.4310807e-001
 -3.3841381e-001
 -3.3111327e-001
 -3.5356837e-001
 -3.4798708e-001
 -3.3144200e-001
 -3.3574948e-001
 -3.6416473e-001
 -3.4270045e-001
 -3.4203501e-001
 -3.5529895e-001
 -3.4481663e-001
 -3.4050709e-001
 -3.4633000e-001
 -3.4415994e-001
 -3.2185717e-001
 -3.2113247e-001
 -3.3723790e-001
 -3.3245900e-001
 -3.3260698e-001
 -3.6016468e-001
 -3.5210732e-001
 -3.3857299e-001
 -3.5532550e-001
 -3.6441956e-001
 -3.5368572e-001
 -3.4381401e-001
 -3.3544258e-001
 -3.1714597e-001
 -3.1290223e-001
 -3.2767442e-001
 -3.2074854e-001
 -3.2625686e-001
 -3.2931915e-001
 -3.2155783e-001
 -3.1299874e-001
 -3.1702805e-001
 -3.3738184e-001
 -3.2122914e-001
 -3.1768372e-001
 -3.2864448e-001
 -3.1282832e-001
 -3.0638742e-001
 -3.0604704e-001
 -2.9165404e-001
 -2.8276735e-001
 -2.7970089e-001
 -2.7610850e-001
 -2.3648348e-001
 -1.5770754e-001
 -2.8408464e-003
  6.0719134e-001
  7.0515325e-001
  1.9767017e-001
  1.1603038e-001
  1.5332593e-001
  1.4405326e-001
  1.1949745e-001
  1.3401889e-001
  1.1590624e-001
  7.8920856e-002
  8.6227178e-002
  6.6848854e-002
  1.3830588e-002
 -4.2218688e-002
 -9.5039505e-002
 -2.0712728e-001
 -3.1457154e-001
 -4.3507105e-001
 -5.6062176e-001
 -5.9502622e-001
 -5.4371325e-001
 -4.9312146e-001
 -5.0128707e-001
 -5.1217367e-001
 -4.5824517e-001
 -3.8277612e-001
 -3.2943309e-001
 -3.0598557e-001
 -3.1901791e-001
 -3.4935508e-001
 -3.2917220e-001
 -3.3316901e-001
 -3.4476022e-001
 -3.3304300e-001
 -3.0082861e-001
 -2.9511700e-001
 -3.0186574e-001
 -2.9355486e-001
 -2.9473518e-001
 -3.0532898e-001
 -3.0446385e-001
 -2.8739728e-001
 -2.9506556e-001
 -2.8126303e-001
 -2.7317317e-001
 -2.7300438e-001
 -2.7883638e-001
 -2.5757330e-001
 -2.3617471e-001
 -2.2803372e-001
 -2.1884157e-001
 -2.1426150e-001
 -2.1877619e-001
 -1.9998117e-001
 -1.7341275e-001
 -1.6646542e-001
 -1.3414396e-001
 -1.2012011e-001
 -1.2121572e-001
 -1.2382074e-001
 -9.2278488e-002
 -6.6030730e-002
 -5.8011046e-002
 -2.9732910e-002
 -4.2871108e-003
 -9.3604943e-003
 -2.1806161e-002
 -2.8429528e-003
  1.4342532e-003
 -4.4273476e-003
  6.0857345e-003
  2.8215081e-003
 -1.1879905e-002
 -3.0145695e-002
 -2.4383053e-002
 -3.2927105e-002
 -6.3342169e-002
 -7.8151881e-002
 -8.3286087e-002
 -1.0182602e-001
 -1.0097164e-001
 -1.0070652e-001
 -1.1905657e-001
 -1.4413892e-001
 -1.3708200e-001
 -1.5160999e-001
 -1.6504990e-001
 -1.5601140e-001
 -1.5343491e-001
 -1.6653801e-001
 -1.7426000e-001
 -1.7287352e-001
 -1.7997315e-001
 -1.7977154e-001
 -1.6831313e-001
 -1.7760068e-001
 -1.8665979e-001
 -1.7927782e-001
 -1.7616507e-001
 -1.8712058e-001
 -1.8131652e-001
 -1.7001444e-001
 -1.7745958e-001
 -1.7362447e-001
 -1.7377323e-001
 -1.8762288e-001
 -2.0408970e-001
 -1.9870806e-001
 -2.0045268e-001
 -2.1689728e-001
 -2.1478736e-001
 -2.1400195e-001
 -2.2890553e-001
 -2.2749747e-001
 -2.1204301e-001
 -2.2071877e-001
 -2.3328339e-001
 -2.3215045e-001
 -2.3060273e-001
 -2.4221360e-001
 -2.5008494e-001
 -2.3642065e-001
 -2.3847635e-001
 -2.5280632e-001
 -2.4152809e-001
 -2.4253908e-001
 -2.4902131e-001
 -2.4002673e-001
 -2.4102657e-001
 -2.5851019e-001
 -2.4439648e-001
 -2.3921676e-001
 -2.5917576e-001
 -2.6178879e-001
 -2.5609677e-001
 -2.6169662e-001
 -2.6509298e-001
 -2.6287337e-001
 -2.5950482e-001
 -2.6749678e-001
 -2.6707587e-001
 -2.5587944e-001
 -2.6590633e-001
 -2.8234401e-001
 -2.6850171e-001
 -2.6542763e-001
 -2.8284726e-001
 -2.6782626e-001
 -2.6320884e-001
 -2.7666037e-001
 -2.7528137e-001
 -2.6064037e-001
 -2.6578292e-001
 -2.7365355e-001
 -2.6149458e-001
 -2.5966001e-001
 -2.7679739e-001
 -2.6053235e-001
 -2.3950816e-001
 -2.5728409e-001
 -2.5143135e-001
 -2.1985112e-001
 -1.9236356e-001
 -1.3408131e-001
  1.7724610e-001
  8.1993756e-001
  6.0854781e-001
  1.5117633e-001
  1.6550734e-001
  1.6443221e-001
  1.6849417e-001
  1.9566769e-001
  1.8350795e-001
  1.5400517e-001
  1.4561545e-001
  1.2933176e-001
  8.1685313e-002
  1.3578072e-002
 -6.3331167e-002
 -1.8617637e-001
 -2.6770551e-001
 -3.6779808e-001
 -5.2980580e-001
 -5.7065602e-001
 -5.1010750e-001
 -4.7072680e-001
 -4.7068316e-001
 -4.4961194e-001
 -4.1613277e-001
 -3.7731933e-001
 -3.1455105e-001
 -2.7286486e-001
 -3.1998194e-001
 -3.4485016e-001
 -3.4405813e-001
 -3.6290765e-001
 -3.6939726e-001
 -3.4264504e-001
 -3.3000181e-001
 -3.4810444e-001
 -3.4031736e-001
 -3.3446875e-001
 -3.5087770e-001
 -3.6010709e-001
 -3.4529221e-001
 -3.5585129e-001
 -3.6209849e-001
 -3.5744448e-001
 -3.4361958e-001
 -3.5869042e-001
 -3.5211664e-001
 -3.2742301e-001
 -3.4059258e-001
 -3.3558873e-001
 -3.2058757e-001
 -3.1100449e-001
 -3.0572960e-001
 -2.8955688e-001
 -2.7170619e-001
 -2.6298628e-001
 -2.4767656e-001
 -2.2159239e-001
 -2.0872762e-001
 -2.0359216e-001
 -1.7112995e-001
 -1.7007939e-001
 -1.5835178e-001
 -1.2383625e-001
 -1.1044277e-001
 -1.1925496e-001
 -1.1072552e-001
 -8.9786911e-002
 -1.0137417e-001
 -1.0611869e-001
 -1.1397085e-001
 -1.2044114e-001
 -1.2102566e-001
 -1.2445014e-001
 -1.4031248e-001
 -1.6056075e-001
 -1.6673048e-001
 -1.7378762e-001
 -1.8979229e-001
 -2.0654807e-001
 -2.0107641e-001
 -2.0946812e-001
 -2.3361043e-001
 -2.3315893e-001
 -2.2462043e-001
 -2.3893667e-001
 -2.4355542e-001
 -2.3204178e-001
 -2.4495919e-001
 -2.4103389e-001
 -2.3589724e-001
 -2.4032572e-001
 -2.5296060e-001
 -2.4697438e-001
 -2.4210269e-001
 -2.5534853e-001
 -2.5439959e-001
 -2.5210048e-001
 -2.6241883e-001
 -2.6138850e-001
 -2.5936696e-001
 -2.5811492e-001
 -2.7561476e-001
 -2.6394448e-001
 -2.6383944e-001
 -2.7735806e-001
 -2.7837555e-001
 -2.7508828e-001
 -2.8390222e-001
 -2.9048800e-001
 -2.7824410e-001
 -2.8681980e-001
 -3.0585695e-001
 -2.9351399e-001
 -2.9159875e-001
 -3.1093032e-001
 -3.0328853e-001
 -2.8636807e-001
 -3.0884264e-001
 -3.1238090e-001
 -2.9685420e-001
 -3.0701765e-001
 -3.2338321e-001
 -3.1935640e-001
 -3.1632956e-001
 -3.3331737e-001
 -3.1446075e-001
 -3.1013338e-001
 -3.1941937e-001
 -3.1732126e-001
 -3.0781298e-001
 -3.1159644e-001
 -3.2262327e-001
 -3.1194427e-001
 -3.0289614e-001
 -3.2381493e-001
 -3.1537299e-001
 -3.1343470e-001
 -3.3133465e-001
 -3.1255358e-001
 -3.1083556e-001
 -3.2241294e-001
 -3.3229136e-001
 -3.1778540e-001
 -3.0678711e-001
 -3.2319052e-001
 -3.0784183e-001
 -2.9739282e-001
 -3.1584171e-001
 -3.1176034e-001
 -2.9164819e-001
 -2.9572549e-001
 -3.0617297e-001
 -2.8351490e-001
 -2.7184977e-001
 -2.6887374e-001
 -2.2434312e-001
 -1.3716348e-001
  2.4529042e-001
  8.2433703e-001
  5.0675355e-001
  9.5001395e-002
  1.3250852e-001
  1.4199270e-001
  1.4821682e-001
  1.3482169e-001
  1.3311495e-001
  1.2296549e-001
  1.1447368e-001
  8.6936755e-002
  2.3914697e-002
 -6.8328508e-002
 -1.9080693e-001
 -2.8588796e-001
 -4.1611532e-001
 -5.7755771e-001
 -5.7683761e-001
 -5.0614664e-001
 -4.8513968e-001
 -4.6621152e-001
 -4.5851656e-001
 -4.5208230e-001
 -4.1935615e-001
 -3.4446299e-001
 -3.3587534e-001
 -3.7074482e-001
 -3.6580301e-001
 -3.7103338e-001
 -3.6977801e-001
 -3.3353371e-001
 -2.9563843e-001
 -2.9648918e-001
 -3.0938284e-001
 -2.8445726e-001
 -2.6314022e-001
 -2.6487407e-001
 -2.6475526e-001
 -2.6231392e-001
 -2.7961371e-001
 -2.8289983e-001
 -2.6561684e-001
 -2.9037301e-001
 -3.2953006e-001
 -3.1496560e-001
 -3.2675291e-001
 -3.3609268e-001
 -3.3549642e-001
 -3.3008039e-001
 -3.3430607e-001
 -3.3474233e-001
 -3.1310741e-001
 -3.1083622e-001
 -3.1361957e-001
 -2.7823420e-001
 -2.7250227e-001
 -2.7300452e-001
 -2.5616594e-001
 -2.3192133e-001
 -2.2901398e-001
 -2.0763769e-001
 -1.8610224e-001
 -1.8944972e-001
 -1.8698499e-001
 -1.7450493e-001
 -1.6138801e-001
 -1.7840571e-001
 -1.6361630e-001
 -1.5448148e-001
 -1.6956538e-001
 -1.6747338e-001
 -1.5680008e-001
 -1.8292398e-001
 -2.0271259e-001
 -1.9874036e-001
 -2.1705647e-001
 -2.3963415e-001
 -2.3487626e-001
 -2.3264509e-001
 -2.6054077e-001
 -2.5360500e-001
 -2.4053366e-001
 -2.6417825e-001
 -2.8373947e-001
 -2.6807043e-001
 -2.7425893e-001
 -2.8166854e-001
 -2.7391074e-001
 -2.7541289e-001
 -2.9195883e-001
 -2.9388496e-001
 -2.7867027e-001
 -2.9095528e-001
 -2.9358282e-001
 -2.7836271e-001
 -2.8062920e-001
 -3.0281815e-001
 -2.9735537e-001
 -2.9888624e-001
 -3.1637058e-001
 -3.1003039e-001
 -2.9761130e-001
 -3.0874502e-001
 -3.1311935e-001
 -3.0196913e-001
 -3.0372882e-001
 -3.1962856e-001
 -3.1134795e-001
 -3.1659265e-001
 -3.2760318e-001
 -3.1819302e-001
 -3.1551922e-001
 -3.1995688e-001
 -3.3234936e-001
 -3.3163877e-001
 -3.2723859e-001
 -3.3775955e-001
 -3.1680940e-001
 -3.1474651e-001
 -3.2903465e-001
 -3.3366010e-001
 -3.2782752e-001
 -3.3889994e-001
 -3.4905849e-001
 -3.3484882e-001
 -3.2508552e-001
 -3.3472344e-001
 -3.2316236e-001
 -3.3345366e-001
 -3.3270301e-001
 -3.3111031e-001
 -3.2152958e-001
 -3.4755786e-001
 -3.4489236e-001
 -3.1557167e-001
 -3.2219691e-001
 -3.3538678e-001
 -3.3185163e-001
 -3.2923428e-001
 -3.3623310e-001
 -3.3060316e-001
 -3.0954342e-001
 -3.2012706e-001
 -3.2343627e-001
 -3.1320589e-001
 -3.0263677e-001
 -3.2056470e-001
 -3.0884776e-001
 -2.9291556e-001
 -2.8824202e-001
 -2.8830933e-001
 -2.6740079e-001
 -2.9557511e-001
 -3.0356867e-001
 -2.7032627e-001
 -2.5087345e-001
 -2.2008300e-001
 -1.3280117e-001
  1.1449021e-001
  7.0217638e-001
  6.2701565e-001
  1.8814019e-001
  1.3738278e-001
  1.3904872e-001
  1.3922172e-001
  1.4927468e-001
  1.1910622e-001
  9.7247332e-002
  9.3966771e-002
  5.9654469e-002
  2.6576753e-002
 -2.0301643e-002
 -1.6010219e-001
 -2.7071921e-001
 -3.9765803e-001
 -5.6078817e-001
 -5.9787914e-001
 -5.2970105e-001
 -4.7328030e-001
 -4.8946297e-001
 -4.8291011e-001
 -4.3356539e-001
 -3.8018647e-001
 -3.1719901e-001
 -3.0834212e-001
 -3.2532823e-001
 -3.2115021e-001
 -3.1518723e-001
 -2.9409656e-001
 -2.7448116e-001
 -2.5912872e-001
 -2.3605341e-001
 -2.2961259e-001
 -2.2879769e-001
 -2.1144804e-001
 -1.9901198e-001
 -1.9901080e-001
 -1.8717722e-001
 -1.8235416e-001
 -2.0598272e-001
 -2.0675681e-001
 -1.7819006e-001
 -1.3674085e-001
 -1.2003685e-001
 -1.0304579e-001
 -1.2083017e-001
 -1.2111779e-001
 -8.2278570e-002
 -6.1438252e-002
 -7.0329298e-002
 -8.7451874e-002
 -3.8973813e-002
 -4.2767834e-002
 -6.0687873e-002
 -4.3452313e-002
 -5.9966403e-002
 -5.5028577e-002
 -4.5096872e-002
 -4.9252945e-002
 -6.6743034e-002
 -4.5963208e-002
 -3.9275172e-002
 -6.8516829e-002
 -6.0941099e-002
 -3.0482127e-002
 -4.9391293e-002
 -9.3248456e-002
 -6.3279970e-002
 -3.5271800e-002
 -4.9061734e-002
 -8.5415239e-002
 -9.5634705e-002
 -1.0031442e-001
 -9.7509957e-002
 -8.8001010e-002
 -1.0014381e-001
 -1.1913498e-001
 -1.3187838e-001
 -1.3236053e-001
 -1.4979141e-001
 -1.5019062e-001
 -1.4833656e-001
 -1.7125379e-001
 -1.6843597e-001
 -1.3441669e-001
 -1.4304713e-001
 -1.7639844e-001
 -1.7010018e-001
 -1.5670260e-001
 -1.6737978e-001
 -1.8180066e-001
 -1.8159853e-001
 -1.9300904e-001
 -1.9143510e-001
 -1.7666640e-001
 -1.7176846e-001
 -1.9324646e-001
 -1.8279519e-001
 -1.7187580e-001
 -1.8374501e-001
 -1.9503581e-001
 -1.7942676e-001
 -1.9185367e-001
 -2.0616803e-001
 -1.8806488e-001
 -1.8974431e-001
 -2.0526065e-001
 -1.9273275e-001
 -1.8789711e-001
 -2.0047688e-001
 -2.0000313e-001
 -1.9367614e-001
 -2.0893129e-001
 -2.2443550e-001
 -1.9985995e-001
 -2.0822090e-001
 -2.1681149e-001
 -2.1839033e-001
 -2.0443026e-001
 -2.2422749e-001
 -2.1776336e-001
 -2.1329080e-001
 -2.4340995e-001
 -2.3660488e-001
 -2.1478731e-001
 -2.1512627e-001
 -2.3198053e-001
 -2.3214621e-001
 -2.2387596e-001
 -2.3543224e-001
 -2.2751620e-001
 -2.1843016e-001
 -2.2070865e-001
 -2.3068430e-001
 -2.2769338e-001
 -2.2422167e-001
 -2.3192572e-001
 -2.3019258e-001
 -2.2517116e-001
 -2.3384616e-001
 -2.3399131e-001
 -2.1603027e-001
 -2.2583620e-001
 -2.2297020e-001
 -2.1831400e-001
 -2.1389071e-001
 -2.1937055e-001
 -2.0949695e-001
 -2.0906705e-001
 -2.2824761e-001
 -2.2934289e-001
 -2.0619663e-001
 -2.1762312e-001
 -2.2273426e-001
 -2.0168379e-001
 -2.0477464e-001
 -1.8869210e-001
 -1.7210600e-001
 -1.0162103e-001
  4.0071468e-002
  6.3659439e-001
  8.3567630e-001
  2.9925980e-001
  1.8201598e-001
  2.2034435e-001
  2.1586807e-001
  1.9812624e-001
  2.0821662e-001
  1.9758770e-001
  1.4890254e-001
  1.4121877e-001
  1.2275904e-001
  6.0381094e-002
 -2.3409465e-002
 -1.2222164e-001
 -2.3507091e-001
 -3.6602905e-001
 -5.1276990e-001
 -6.0363657e-001
 -5.9719205e-001
 -5.4232353e-001
 -4.9831864e-001
 -4.9895661e-001
 -4.8595271e-001
 -4.4480299e-001
 -3.8631492e-001
 -3.2652138e-001
 -2.9667249e-001
 -3.0279202e-001
 -3.1541151e-001
 -3.1892392e-001
 -2.9824228e-001
 -2.9803568e-001
 -2.8966702e-001
 -2.6787195e-001
 -2.5607115e-001
 -2.7711290e-001
 -2.5361821e-001
 -2.3754402e-001
 -2.4735897e-001
 -2.4768042e-001
 -2.3323355e-001
 -2.3187427e-001
 -2.3521660e-001
 -2.2160150e-001
 -2.2067418e-001
 -2.3777720e-001
 -2.3748738e-001
 -2.1283352e-001
 -2.1911845e-001
 -2.0678062e-001
 -2.0438644e-001
 -1.9136971e-001
 -2.0152067e-001
 -1.7182375e-001
 -1.6271589e-001
 -1.6646997e-001
 -1.4447371e-001
 -1.3160675e-001
 -1.3002595e-001
 -1.1351988e-001
 -9.3106571e-002
 -8.8866200e-002
 -8.3369050e-002
 -7.2312078e-002
 -6.0249449e-002
 -7.2405309e-002
 -6.5157327e-002
 -5.0972920e-002
 -6.2852191e-002
 -3.9450139e-002
 -9.8548108e-003
 -1.8710417e-002
 -3.8908361e-002
 -1.4804135e-002
 -1.6388564e-002
 -2.9239163e-002
 -2.4850633e-002
 -3.3510041e-002
 -6.7159427e-002
 -7.6839626e-002
 -8.0465653e-002
 -1.0982160e-001
 -1.2989270e-001
 -1.3504271e-001
 -1.6609190e-001
 -1.9523774e-001
 -1.8258027e-001
 -1.8243488e-001
 -2.0477024e-001
 -2.0794912e-001
 -2.0578503e-001
 -2.2167363e-001
 -2.3912111e-001
 -2.2375789e-001
 -2.2312675e-001
 -2.4093060e-001
 -2.3180296e-001
 -2.3410656e-001
 -2.4683156e-001
 -2.3427928e-001
 -2.3205037e-001
 -2.4597785e-001
 -2.6446983e-001
 -2.5020131e-001
 -2.4934666e-001
 -2.6891608e-001
 -2.6064664e-001
 -2.5200314e-001
 -2.6954107e-001
 -2.7708552e-001
 -2.6420397e-001
 -2.7513526e-001
 -2.8728283e-001
 -2.7969729e-001
 -2.7750557e-001
 -2.9757722e-001
 -2.9921779e-001
 -2.8358034e-001
 -3.0019890e-001
 -2.9858934e-001
 -2.9497133e-001
 -3.1367331e-001
 -3.1863540e-001
 -3.1013585e-001
 -3.1417225e-001
 -3.1937743e-001
 -3.1660211e-001
 -3.1202628e-001
 -3.2662210e-001
 -3.3137892e-001
 -3.0876682e-001
 -3.2711635e-001
 -3.3817557e-001
 -3.2220466e-001
 -3.2319692e-001
 -3.3405048e-001
 -3.3939699e-001
 -3.2022359e-001
 -3.2884212e-001
 -3.3261563e-001
 -3.2242828e-001
 -3.3151131e-001
 -3.3833857e-001
 -3.3236178e-001
 -3.2457620e-001
 -3.3700183e-001
 -3.2484601e-001
 -3.2101804e-001
 -3.3900328e-001
 -3.2596104e-001
 -3.2039011e-001
 -3.2305915e-001
 -3.3033485e-001
 -3.2231212e-001
 -3.2291946e-001
 -3.3007240e-001
 -3.1914016e-001
 -2.9711061e-001
 -3.0899289e-001
 -3.1856206e-001
 -3.0012185e-001
 -3.0518422e-001
 -3.0649441e-001
 -2.8651809e-001
 -2.8614942e-001
 -3.0030249e-001
 -2.6304697e-001
 -2.2435088e-001
 -1.4884177e-001
  6.6870628e-002
  6.4333011e-001
  6.1549277e-001
  1.9415304e-001
  1.4664187e-001
  1.3725540e-001
  1.1857796e-001
  1.2282146e-001
  1.3403208e-001
  1.1393656e-001
  8.9535573e-002
  1.0266889e-001
  8.0551172e-002
  4.0299074e-002
  8.4034632e-003
 -6.5524965e-002
 -1.5745199e-001
 -2.4742274e-001
 -3.3693207e-001
 -4.7852441e-001
 -5.6213987e-001
 -5.3497812e-001
 -4.9108302e-001
 -4.8148063e-001
 -4.6261728e-001
 -4.6145818e-001
 -4.6543906e-001
 -4.1862055e-001
 -3.5881641e-001
 -3.4922724e-001
 -3.6116719e-001
 -3.5137570e-001
 -3.6978322e-001
 -3.7298464e-001
 -3.5787191e-001
 -3.3737310e-001
 -3.4361295e-001
 -3.2098484e-001
 -3.2309830e-001
 -3.2058647e-001
 -3.1903154e-001
 -3.0479482e-001
 -3.0816463e-001
 -3.1349726e-001
 -2.9166107e-001
 -2.8820147e-001
 -2.9619919e-001
 -2.8653078e-001
 -2.7742984e-001
 -2.8508018e-001
 -2.7850067e-001
 -2.5959313e-001
 -2.6441582e-001
 -2.7858871e-001
 -2.4631353e-001
 -2.4967380e-001
 -2.5146922e-001
 -2.2223825e-001
 -2.1027410e-001
 -2.2074959e-001
 -2.1382749e-001
 -1.7581510e-001
 -1.7453489e-001
 -1.6852631e-001
 -1.4536720e-001
 -1.4122319e-001
 -1.4887338e-001
 -1.2923558e-001
 -1.2441520e-001
 -1.2793597e-001
 -1.2571577e-001
 -1.1114063e-001
 -1.1779300e-001
 -1.1777091e-001
 -1.0515507e-001
 -1.1328902e-001
 -1.2644674e-001
 -1.1899709e-001
 -1.2956123e-001
 -1.4290866e-001
 -1.5408916e-001
 -1.5476939e-001
 -1.8540054e-001
 -1.8688361e-001
 -1.7936915e-001
 -1.9695682e-001
 -2.0729875e-001
 -2.1686934e-001
 -2.2321104e-001
 -2.3357010e-001
 -2.2792152e-001
 -2.1585983e-001
 -2.2967432e-001
 -2.4952135e-001
 -2.3493152e-001
 -2.4389862e-001
 -2.5259183e-001
 -2.3508420e-001
 -2.3238093e-001
 -2.4716782e-001
 -2.4742415e-001
 -2.3563135e-001
 -2.5281508e-001
 -2.6769907e-001
 -2.4672868e-001
 -2.5252251e-001
 -2.7044699e-001
 -2.5054272e-001
 -2.4228077e-001
 -2.5646491e-001
 -2.5238447e-001
 -2.2979334e-001
 -2.3698541e-001
 -2.3731218e-001
 -2.2254968e-001
 -2.2329217e-001
 -2.3095783e-001
 -2.3034578e-001
 -2.2649187e-001
 -2.4413216e-001
 -2.4821824e-001
 -2.4785496e-001
 -2.7060860e-001
 -2.9137690e-001
 -2.9265101e-001
 -3.0372233e-001
 -3.2531716e-001
 -3.1018964e-001
 -2.9768542e-001
 -3.2096548e-001
 -3.2998450e-001
 -3.1557412e-001
 -3.2001086e-001
 -3.3193651e-001
 -3.2247562e-001
 -3.3143064e-001
 -3.5026688e-001
 -3.3819567e-001
 -3.2765670e-001
 -3.3778004e-001
 -3.4271950e-001
 -3.1653448e-001
 -3.3211367e-001
 -3.4650820e-001
 -3.2195925e-001
 -3.2540675e-001
 -3.3530021e-001
 -3.2106560e-001
 -3.1129075e-001
 -3.3515245e-001
 -3.2875873e-001
 -3.0646991e-001
 -3.1940804e-001
 -3.2229089e-001
 -3.0477820e-001
 -3.0406479e-001
 -3.2460467e-001
 -3.0553247e-001
 -3.0715493e-001
 -3.3301379e-001
 -3.0762648e-001
 -3.0188213e-001
 -3.0728918e-001
 -3.1258388e-001
 -3.0014343e-001
 -2.9961328e-001
 -3.1210279e-001
 -2.8768648e-001
 -2.6854482e-001
 -2.5423467e-001
 -1.6225768e-001
  1.2191262e-001
  7.7575313e-001
  6.7158038e-001
  1.9017636e-001
  1.4032478e-001
  1.2202820e-001
  1.3763881e-001
  1.3934742e-001
  1.2790133e-001
  1.1941353e-001
  1.0056524e-001
  8.2234683e-002
  9.9323944e-002
  1.1288661e-001
  8.6734605e-002
  2.6158485e-002
 -5.5548825e-002
 -1.5020933e-001
 -2.5430925e-001
 -3.9882355e-001
 -4.5832984e-001
 -4.2666932e-001
 -3.7458429e-001
 -3.5855146e-001
 -3.8114204e-001
 -4.1074593e-001
 -3.9982752e-001
 -3.8504964e-001
 -3.7460095e-001
 -3.6255003e-001
 -3.3276625e-001
 -3.3199391e-001
 -3.3944018e-001
 -3.4287799e-001
 -3.5459237e-001
 -3.3159956e-001
 -3.1342359e-001
 -3.0989534e-001
 -3.1911822e-001
 -3.0641988e-001
 -2.7005091e-001
 -2.8046738e-001
 -2.8309390e-001
 -2.4962654e-001
 -2.5462654e-001
 -2.5724243e-001
 -2.4053426e-001
 -2.3626746e-001
 -2.4434197e-001
 -2.3548198e-001
 -2.1882468e-001
 -2.2202748e-001
 -2.2333139e-001
 -2.0040061e-001
 -1.9048570e-001
 -1.9202538e-001
 -1.8206250e-001
 -1.6665633e-001
 -1.6317141e-001
 -1.4010436e-001
 -1.2344901e-001
 -1.1386872e-001
 -9.4899475e-002
 -7.3304849e-002
 -6.1893964e-002
 -7.4551501e-002
 -7.2388200e-002
 -6.1759763e-002
 -5.7196506e-002
 -7.8786177e-002
 -8.9667424e-002
 -1.0740348e-001
 -9.7756261e-002
 -7.3890963e-002
 -7.9698735e-002
 -1.0341782e-001
 -1.2292586e-001
 -1.2959819e-001
 -1.3213782e-001
 -1.4889981e-001
 -1.3243898e-001
 -1.4115435e-001
 -1.6113977e-001
 -1.6630393e-001
 -1.7317228e-001
 -1.8240022e-001
 -1.8675597e-001
 -1.8265578e-001
 -1.9368043e-001
 -1.8484560e-001
 -1.7820953e-001
 -1.8247210e-001
 -1.7810294e-001
 -1.8493700e-001
 -1.9899288e-001
 -1.9849647e-001
 -1.7613611e-001
 -1.6204364e-001
 -1.9268854e-001
 -1.7938594e-001
 -1.6588368e-001
 -1.7767689e-001
 -1.9309353e-001
 -1.8703651e-001
 -1.8091970e-001
 -2.0394110e-001
 -1.8262867e-001
 -1.7694891e-001
 -1.9232120e-001
 -1.9826602e-001
 -1.9660394e-001
 -1.9604677e-001
 -2.0366979e-001
 -1.9706044e-001
 -2.1433780e-001
 -2.2352517e-001
 -1.9526897e-001
 -1.9762416e-001
 -2.1675704e-001
 -2.1471621e-001
 -2.0002875e-001
 -2.0982841e-001
 -2.2190062e-001
 -2.0870084e-001
 -2.1852626e-001
 -2.2606254e-001
 -2.2932518e-001
 -2.3589589e-001
 -2.4577934e-001
 -2.3368886e-001
 -2.0978546e-001
 -2.3739764e-001
 -2.4846053e-001
 -2.2471730e-001
 -2.1458697e-001
 -2.1045229e-001
 -1.9950722e-001
 -1.9692237e-001
 -1.9910271e-001
 -1.8352570e-001
 -1.7194497e-001
 -2.0108931e-001
 -2.1880861e-001
 -2.0849914e-001
 -2.0173700e-001
 -1.8655135e-001
 -1.7065265e-001
 -1.7423097e-001
 -2.1385096e-001
 -2.1876010e-001
 -2.1274768e-001
 -2.4468578e-001
 -2.5641631e-001
 -2.3931791e-001
 -2.3300290e-001
 -2.2554211e-001
 -2.0835958e-001
 -2.0321248e-001
 -2.1162386e-001
 -2.0623069e-001
 -2.2526220e-001
 -2.2240151e-001
 -1.9819452e-001
 -1.7568779e-001
 -1.9684277e-001
 -1.9052932e-001
 -1.3780104e-001
 -7.3524643e-002
  7.4883618e-002
  6.4706777e-001
  8.1280561e-001
  3.3347585e-001
  1.7996481e-001
  2.2074743e-001
  2.4938238e-001
  2.6497223e-001
  3.1517733e-001
  3.6191780e-001
  3.6129352e-001
  3.5874359e-001
  4.0134843e-001
  4.3350306e-001
  4.0330085e-001
  4.0367448e-001
  3.7496736e-001
  2.5786959e-001
  1.6997032e-001
  6.6247168e-002
 -1.3499333e-001
 -2.4965388e-001
 -2.3629584e-001
 -2.4211048e-001
 -2.6908408e-001
 -2.8444063e-001
 -3.2392904e-001
 -3.6676636e-001
 -3.5230396e-001
 -3.3777831e-001
 -3.4257384e-001
 -3.5056024e-001
 -3.1482427e-001
 -3.1236324e-001
 -3.2054625e-001
 -3.0439162e-001
 -3.2754861e-001
 -3.2292403e-001
 -2.7546268e-001
 -2.6011918e-001
 -2.6421356e-001
 -2.5246872e-001
 -2.3992836e-001
 -2.4436556e-001
 -2.4296251e-001
 -2.2361326e-001
 -2.2768336e-001
 -2.3735448e-001
 -2.3354022e-001
 -2.2200308e-001
 -2.3374295e-001
 -2.2633424e-001
 -2.0516447e-001
 -2.1287657e-001
 -2.0322529e-001
 -1.8464025e-001
 -1.8179040e-001
 -1.8439919e-001
 -1.6711740e-001
 -1.5885290e-001
 -1.6490794e-001
 -1.4624161e-001
 -1.1157908e-001
 -1.2442328e-001
 -1.0279242e-001
 -8.6395581e-002
 -8.6511312e-002
 -8.1086682e-002
 -6.0729132e-002
 -5.1261063e-002
 -5.2559170e-002
 -4.3335308e-002
 -3.3018619e-002
 -4.1521430e-002
 -5.2611655e-002
 -2.6967061e-002
 -4.8581303e-002
 -6.4005419e-002
 -6.8250071e-002
 -7.1943803e-002
 -1.0426352e-001
 -1.0629299e-001
 -9.8906462e-002
 -1.2441162e-001
 -1.4025222e-001
 -1.3025110e-001
 -1.3270204e-001
 -1.6223506e-001
 -1.5374816e-001
 -1.5891831e-001
 -1.7577108e-001
 -1.6964546e-001
 -1.6225672e-001
 -1.8334727e-001
 -1.8752423e-001
 -1.7707060e-001
 -1.7979686e-001
 -2.0294940e-001
 -2.0018432e-001
 -1.9466034e-001
 -2.0356379e-001
 -1.9714784e-001
 -1.7841581e-001
 -1.9951131e-001
 -2.1068686e-001
 -1.9295587e-001
 -1.9378897e-001
 -2.1647811e-001
 -2.0526807e-001
 -1.8558040e-001
 -2.0990781e-001
 -2.1885029e-001
 -2.0741244e-001
 -2.2026845e-001
 -2.2885480e-001
 -2.1875320e-001
 -2.1774483e-001
 -2.4329793e-001
 -2.2815621e-001
 -2.2881273e-001
 -2.2953935e-001
 -2.3426660e-001
 -2.2690539e-001
 -2.3824650e-001
 -2.5922960e-001
 -2.3283930e-001
 -2.4360515e-001
 -2.5847959e-001
 -2.5413892e-001
 -2.5003673e-001
 -2.7495473e-001
 -2.6272465e-001
 -2.3569316e-001
 -2.5411472e-001
 -2.6120602e-001
 -2.5391185e-001
 -2.6188737e-001
 -2.7500538e-001
 -2.6136184e-001
 -2.5564882e-001
 -2.7176109e-001
 -2.6988750e-001
 -2.6074396e-001
 -2.7207982e-001
 -2.7583898e-001
 -2.6579684e-001
 -2.7322950e-001
 -2.8842028e-001
 -2.7098201e-001
 -2.6717910e-001
 -2.8220630e-001
 -2.7952287e-001
 -2.6879841e-001
 -2.7984977e-001
 -2.9306398e-001
 -2.8480316e-001
 -2.7705490e-001
 -2.7925733e-001
 -2.7470430e-001
 -2.8275678e-001
 -2.9424170e-001
 -3.0034648e-001
 -2.8062752e-001
 -2.8500076e-001
 -2.8491128e-001
 -2.5040293e-001
 -2.4813961e-001
 -2.5615028e-001
 -2.3025883e-001
 -2.3033936e-001
 -2.5222424e-001
 -2.4923144e-001
 -2.1997279e-001
 -1.7690314e-001
 -7.1552817e-002
  4.6726533e-001
  6.9618861e-001
  1.9058319e-001
  7.6078796e-002
  1.2939591e-001
  1.1565057e-001
  1.2023970e-001
  1.5833295e-001
  1.6338649e-001
  1.3540085e-001
  1.5513233e-001
  1.7277522e-001
  1.3780221e-001
  1.0522221e-001
  6.8256771e-002
 -2.0735531e-002
 -1.1778994e-001
 -2.4616946e-001
 -4.1255239e-001
 -4.4583408e-001
 -3.9302515e-001
 -3.7896170e-001
 -4.1948260e-001
 -4.2212238e-001
 -4.3243672e-001
 -4.4720083e-001
 -3.9829596e-001
 -3.5286758e-001
 -3.7830170e-001
 -4.1965109e-001
 -4.1390596e-001
 -4.1150762e-001
 -4.1337963e-001
 -3.9389644e-001
 -3.7485556e-001
 -3.8138433e-001
 -3.6584629e-001
 -3.5731275e-001
 -3.5662868e-001
 -3.5017818e-001
 -3.3659334e-001
 -3.2726759e-001
 -3.3373145e-001
 -3.2428200e-001
 -3.0018905e-001
 -3.1367450e-001
 -3.1039438e-001
 -2.8384479e-001
 -3.0447770e-001
 -2.9652531e-001
 -2.7071696e-001
 -2.8065140e-001
 -2.7257224e-001
 -2.6314826e-001
 -2.4801662e-001
 -2.4205259e-001
 -2.2928738e-001
 -2.0498085e-001
 -1.9632335e-001
 -1.9737678e-001
 -1.8935983e-001
 -1.8383134e-001
 -1.8805244e-001
 -1.6962601e-001
 -1.6183656e-001
 -1.8055103e-001
 -1.7291262e-001
 -1.7710935e-001
 -1.8244296e-001
 -1.9309723e-001
 -1.8345993e-001
 -2.0647174e-001
 -2.2290860e-001
 -2.1870790e-001
 -2.2808594e-001
 -2.4519351e-001
 -2.5270575e-001
 -2.5104425e-001
 -2.7028996e-001
 -2.8578572e-001
 -2.7118775e-001
 -2.8403858e-001
 -3.0092541e-001
 -2.8986325e-001
 -2.9075326e-001
 -3.1108575e-001
 -3.1875817e-001
 -3.0593889e-001
 -3.1247038e-001
 -3.1696956e-001
 -3.0414253e-001
 -3.0925671e-001
 -3.1764106e-001
 -3.0911620e-001
 -2.9930029e-001
 -3.0917522e-001
 -3.0547277e-001
 -2.9487226e-001
 -2.9871410e-001
 -3.0411128e-001
 -2.8962251e-001
 -2.9237452e-001
 -3.0822882e-001
 -2.9383245e-001
 -2.8702101e-001
 -3.1863819e-001
 -3.1478422e-001
 -3.0661477e-001
 -3.1754481e-001
 -3.2253337e-001
 -3.0284363e-001
 -3.1306873e-001
 -3.3464354e-001
 -3.2052550e-001
 -3.1344145e-001
 -3.2735793e-001
 -3.3947299e-001
 -3.2820577e-001
 -3.3423896e-001
 -3.5317293e-001
 -3.3626974e-001
 -3.4704939e-001
 -3.5983047e-001
 -3.5163270e-001
 -3.5059979e-001
 -3.5898012e-001
 -3.5451492e-001
 -3.4501910e-001
 -3.6607794e-001
 -3.7402476e-001
 -3.4894737e-001
 -3.5906727e-001
 -3.6878554e-001
 -3.5877113e-001
 -3.4809674e-001
 -3.6506682e-001
 -3.6067264e-001
 -3.5343177e-001
 -3.6514112e-001
 -3.8225698e-001
 -3.6755157e-001
 -3.7449567e-001
 -3.8008515e-001
 -3.5997307e-001
 -3.5809580e-001
 -3.6866290e-001
 -3.7022096e-001
 -3.5595572e-001
 -3.7304895e-001
 -3.7180419e-001
 -3.4954473e-001
 -3.6118699e-001
 -3.6954555e-001
 -3.5498344e-001
 -3.4402868e-001
 -3.5812236e-001
 -3.6056160e-001
 -3.3069295e-001
 -3.3106573e-001
 -2.9014472e-001
 -2.1230053e-001
  9.8777110e-002
  6.7811021e-001
  4.1480520e-001
  2.5308436e-002
  4.1973125e-002
  3.4657780e-002
  4.8125723e-002
  6.9017095e-002
  7.7890246e-002
  6.2524818e-002
  5.5747247e-002
  5.3631250e-002
  2.1616217e-002
 -5.7388350e-002
 -1.7825015e-001
 -3.1115197e-001
 -4.2147115e-001
 -5.8993623e-001
 -6.4682295e-001
 -5.5445531e-001
 -4.8389140e-001
 -4.5856617e-001
 -4.5506577e-001
 -4.3158312e-001
 -4.1208961e-001
 -3.6398936e-001
 -3.5231032e-001
 -4.0809384e-001
 -4.2276229e-001
 -4.2824786e-001
 -4.4043913e-001
 -4.4552575e-001
 -4.3486364e-001
 -4.2802518e-001
 -4.4729113e-001
 -4.2785771e-001
 -4.0536337e-001
 -4.2017575e-001
 -4.1763913e-001
 -4.0604380e-001
 -4.0456712e-001
 -4.0321856e-001
 -3.9291547e-001
 -3.9121035e-001
 -3.9894924e-001
 -3.8630611e-001
 -3.6199374e-001
 -3.6269734e-001
 -3.5282057e-001
 -3.4120458e-001
 -3.2160733e-001
 -3.2778628e-001
 -3.0877053e-001
 -2.8694851e-001
 -2.9138979e-001
 -2.8940388e-001
 -2.6481744e-001
 -2.5647708e-001
 -2.6245109e-001
 -2.5097402e-001
 -2.5066518e-001
 -2.4825823e-001
 -2.4899740e-001
 -2.3675204e-001
 -2.4406858e-001
 -2.4427609e-001
 -2.3095494e-001
 -2.4863120e-001
 -2.5067848e-001
 -2.4688182e-001
 -2.4437436e-001
 -2.7327544e-001
 -2.7338788e-001
 -2.7940892e-001
 -3.0108603e-001
 -3.1177181e-001
 -3.1741833e-001
 -3.2577104e-001
 -3.3014666e-001
 -3.2012988e-001
 -3.2478210e-001
 -3.3177072e-001
 -3.2972386e-001
 -3.3357414e-001
 -3.4713459e-001
 -3.2565750e-001
 -3.1627865e-001
 -3.2327171e-001
 -3.2240038e-001
 -3.1688426e-001
 -3.1905017e-001
 -3.2763965e-001
 -3.2961178e-001
 -3.3417404e-001
 -3.3751944e-001
 -3.3770926e-001
 -3.3672748e-001
 -3.4823476e-001
 -3.6339517e-001
 -3.4968858e-001
 -3.5045643e-001
 -3.5315941e-001
 -3.4730006e-001
 -3.6325194e-001
 -3.6457130e-001
 -3.6477444e-001
 -3.5336918e-001
 -3.6758411e-001
 -3.7149424e-001
 -3.7263867e-001
 -3.8184510e-001
 -3.8870174e-001
 -3.7174018e-001
 -3.6849822e-001
 -3.8347978e-001
 -3.8266873e-001
 -3.8145673e-001
 -3.8554152e-001
 -3.9590450e-001
 -3.8818848e-001
 -3.9919117e-001
 -4.0188236e-001
 -3.9235050e-001
 -3.8713609e-001
 -4.0607907e-001
 -4.0334196e-001
 -3.9627249e-001
 -3.9969948e-001
 -3.9482044e-001
 -3.9029288e-001
 -4.0696038e-001
 -4.0768091e-001
 -3.9260974e-001
 -3.8680204e-001
 -3.9487370e-001
 -3.9713044e-001
 -3.8882110e-001
 -3.9015337e-001
 -3.8200822e-001
 -3.7540574e-001
 -3.7737197e-001
 -3.8435183e-001
 -3.7742266e-001
 -3.6894094e-001
 -4.0614567e-001
 -3.8611720e-001
 -3.6843754e-001
 -3.8298982e-001
 -3.8867048e-001
 -3.5949239e-001
 -3.4867937e-001
 -3.6053603e-001
 -3.3460916e-001
 -2.8493555e-001
 -2.0934418e-001
  9.5424951e-002
  7.6921562e-001
  5.6201894e-001
  5.8845505e-002
  8.4296691e-002
  7.9592419e-002
  4.9000910e-002
  6.4560751e-002
  7.7181737e-002
  2.5241341e-002
  2.3217784e-002
  1.2068159e-002
 -5.2306061e-002
 -1.2068557e-001
 -2.1192995e-001
 -3.3400484e-001
 -4.7351113e-001
 -6.2702201e-001
 -6.6170457e-001
 -6.1598287e-001
 -5.5620548e-001
 -5.3471612e-001
 -5.2924485e-001
 -4.8870471e-001
 -4.2044067e-001
 -3.6938944e-001
 -3.4969294e-001
 -3.3795828e-001
 -3.5279775e-001
 -3.6498754e-001
 -3.9766028e-001
 -3.7951336e-001
 -3.5812572e-001
 -3.6143308e-001
 -3.5070524e-001
 -3.5704865e-001
 -3.6705148e-001
 -3.5925452e-001
 -3.4056056e-001
 -3.5718057e-001
 -3.7254708e-001
 -3.5878871e-001
 -3.5457044e-001
 -3.7050109e-001
 -3.3872433e-001
 -3.3499909e-001
 -3.5388173e-001
 -3.3000890e-001
 -3.2658945e-001
 -3.4386844e-001
 -3.4669418e-001
 -3.1790522e-001
 -2.9814854e-001
 -2.8356765e-001
 -2.4765084e-001
 -2.2601623e-001
 -2.1381951e-001
 -2.0485858e-001
 -1.9253528e-001
 -1.9001826e-001
 -1.6944005e-001
 -1.3645897e-001
 -1.3225057e-001
 -1.3984981e-001
 -1.0658281e-001
 -1.0106683e-001
 -1.2864329e-001
 -1.1093513e-001
 -9.5310864e-002
 -1.1928859e-001
 -1.3375333e-001
 -1.2970825e-001
 -1.4076063e-001
 -1.5040481e-001
 -1.4272452e-001
 -1.5948960e-001
 -1.9684732e-001
 -1.9066165e-001
 -1.9015090e-001
 -2.1861296e-001
 -2.2430352e-001
 -2.2811589e-001
 -2.4753485e-001
 -2.4461153e-001
 -2.3353240e-001
 -2.3573821e-001
 -2.6030876e-001
 -2.3453472e-001
 -2.4215794e-001
 -2.6491896e-001
 -2.5435023e-001
 -2.4690874e-001
 -2.6849087e-001
 -2.6649843e-001
 -2.4904168e-001
 -2.5774642e-001
 -2.7809045e-001
 -2.6414669e-001
 -2.5350933e-001
 -2.8274189e-001
 -2.8967525e-001
 -2.7197773e-001
 -2.6972117e-001
 -2.6994090e-001
 -2.6749336e-001
 -2.7922619e-001
 -3.0541488e-001
 -2.7838928e-001
 -2.7407497e-001
 -2.9444045e-001
 -2.9144509e-001
 -2.8983215e-001
 -3.0148115e-001
 -3.0055965e-001
 -2.7757343e-001
 -3.0828322e-001
 -3.2655937e-001
 -2.9582414e-001
 -3.0723387e-001
 -3.2684901e-001
 -3.1935489e-001
 -3.0995661e-001
 -3.2163805e-001
 -3.4244641e-001
 -3.1557857e-001
 -3.1532339e-001
 -3.3043729e-001
 -3.1651668e-001
 -3.2058641e-001
 -3.3674294e-001
 -3.3072759e-001
 -3.1523678e-001
 -3.4027905e-001
 -3.4934021e-001
 -3.2569187e-001
 -3.3014734e-001
 -3.4649943e-001
 -3.3161219e-001
 -3.2701543e-001
 -3.4210429e-001
 -3.4907249e-001
 -3.3074983e-001
 -3.4301081e-001
 -3.4556613e-001
 -3.2254247e-001
 -3.3112890e-001
 -3.4238524e-001
 -3.3069511e-001
 -3.1568905e-001
 -3.3657182e-001
 -3.2406056e-001
 -3.2183162e-001
 -3.3311823e-001
 -3.3496544e-001
 -3.2557396e-001
 -3.2960216e-001
 -3.3615590e-001
 -3.2642496e-001
 -2.9932232e-001
 -3.0809491e-001
 -2.0937435e-001
 -3.9940267e-003
  6.4123031e-001
  6.4907084e-001
  9.0192300e-002
  6.0624932e-002
  8.8739128e-002
  1.0406401e-001
  1.1140983e-001
  9.1007487e-002
  6.2872812e-002
  5.6718155e-002
  1.5521576e-002
 -4.7585858e-002
 -1.1199834e-001
 -2.2126633e-001
 -3.3646374e-001
 -4.2735569e-001
 -5.8023657e-001
 -6.8868120e-001
 -6.2566365e-001
 -5.5849981e-001
 -5.6520997e-001
 -5.6270184e-001
 -5.2059811e-001
 -4.7835728e-001
 -4.2252490e-001
 -3.6241433e-001
 -3.6613165e-001
 -4.0495409e-001
 -4.0595985e-001
 -4.1232921e-001
 -4.0761873e-001
 -3.9703614e-001
 -3.7505486e-001
 -3.7183612e-001
 -3.6371440e-001
 -3.2587894e-001
 -3.2141760e-001
 -3.3373655e-001
 -3.2257506e-001
 -3.0462707e-001
 -3.1061638e-001
 -3.1506749e-001
 -3.0353725e-001
 -3.1968019e-001
 -3.2661513e-001
 -3.2400011e-001
 -3.1223556e-001
 -3.4586974e-001
 -3.6432391e-001
 -3.7267245e-001
 -3.7165694e-001
 -3.6973079e-001
 -3.5296348e-001
 -3.4520600e-001
 -3.5453140e-001
 -3.4858066e-001
 -3.3464237e-001
 -3.2859248e-001
 -3.2488215e-001
 -3.0652790e-001
 -2.9701641e-001
 -2.8735969e-001
 -2.5852560e-001
 -2.5386741e-001
 -2.5812305e-001
 -2.3931861e-001
 -2.1828888e-001
 -2.2935229e-001
 -2.2581294e-001
 -2.1382496e-001
 -2.3210617e-001
 -2.4757796e-001
 -2.3394353e-001
 -2.4820654e-001
 -2.7566548e-001
 -2.6550017e-001
 -2.6849920e-001
 -2.8743730e-001
 -2.8905287e-001
 -2.8553696e-001
 -3.0000558e-001
 -3.1285488e-001
 -3.0298597e-001
 -3.0692233e-001
 -3.3051497e-001
 -3.2205173e-001
 -3.2534803e-001
 -3.4902168e-001
 -3.3346403e-001
 -3.3545916e-001
 -3.3989869e-001
 -3.4518198e-001
 -3.2620235e-001
 -3.4432036e-001
 -3.5663668e-001
 -3.4648763e-001
 -3.4310252e-001
 -3.5325409e-001
 -3.5445641e-001
 -3.4804524e-001
 -3.6098157e-001
 -3.6851897e-001
 -3.4864309e-001
 -3.5667237e-001
 -3.6898769e-001
 -3.6697242e-001
 -3.5536428e-001
 -3.7278389e-001
 -3.7812626e-001
 -3.6208079e-001
 -3.7534256e-001
 -3.7429849e-001
 -3.6099907e-001
 -3.8040356e-001
 -3.9047426e-001
 -3.8157986e-001
 -3.8524419e-001
 -4.0003765e-001
 -3.9819471e-001
 -3.8375145e-001
 -4.0869974e-001
 -4.0885095e-001
 -3.9298571e-001
 -4.0071225e-001
 -4.1146791e-001
 -4.0038189e-001
 -3.9966361e-001
 -4.2280576e-001
 -4.0787958e-001
 -4.0384688e-001
 -4.1237328e-001
 -4.2243411e-001
 -4.0175253e-001
 -4.0016816e-001
 -4.1272296e-001
 -3.9822655e-001
 -4.0343640e-001
 -4.1775706e-001
 -4.0563316e-001
 -4.0369841e-001
 -4.0915913e-001
 -4.0714223e-001
 -3.9721794e-001
 -4.0532206e-001
 -4.1884533e-001
 -4.1087865e-001
 -4.0294374e-001
 -4.0707818e-001
 -4.0339521e-001
 -3.9479801e-001
 -4.0374284e-001
 -4.0681554e-001
 -3.9766417e-001
 -4.1153396e-001
 -4.0265284e-001
 -3.9074489e-001
 -3.9422875e-001
 -4.0802483e-001
 -3.9481616e-001
 -3.7892883e-001
 -3.8805567e-001
 -3.7539443e-001
 -3.4127655e-001
 -2.9514380e-001
 -1.9014857e-001
  3.4667022e-001
  6.9206875e-001
  1.7132572e-001
 -2.3532399e-002
  4.1164232e-002
  1.8328067e-002
  1.0352679e-002
  4.3858460e-002
  2.6169760e-002
 -5.2158999e-003
  1.2334073e-002
 -3.9805892e-003
 -6.0010138e-002
 -1.1482516e-001
 -1.9025977e-001
 -3.0799268e-001
 -4.1966889e-001
 -5.2378538e-001
 -6.6730282e-001
 -6.8620182e-001
 -5.9529603e-001
 -5.4298826e-001
 -5.4425939e-001
 -5.4074913e-001
 -5.1613070e-001
 -5.0707895e-001
 -4.5802486e-001
 -3.8645101e-001
 -4.0689708e-001
 -4.4339507e-001
 -4.2737572e-001
 -4.3426039e-001
 -4.3199004e-001
 -4.1273565e-001
 -3.9173854e-001
 -3.8403224e-001
 -3.7844419e-001
 -3.6418061e-001
 -3.5889250e-001
 -3.7570571e-001
 -3.5677841e-001
 -3.4953136e-001
 -3.6121371e-001
 -3.5061769e-001
 -3.3894783e-001
 -3.4422138e-001
 -3.4608872e-001
 -3.4683640e-001
 -3.3657209e-001
 -3.4830750e-001
 -3.2623928e-001
 -3.2013077e-001
 -3.3205422e-001
 -3.1373018e-001
 -3.0544106e-001
 -3.0279959e-001
 -2.9857130e-001
 -2.6887760e-001
 -2.6828011e-001
 -2.9122400e-001
 -2.6191321e-001
 -2.5235527e-001
 -2.4675849e-001
 -2.4190133e-001
 -2.1426588e-001
 -2.0943654e-001
 -1.8995481e-001
 -1.6950736e-001
 -1.6516353e-001
 -1.7880044e-001
 -1.4598929e-001
 -1.2636474e-001
 -1.6385851e-001
 -1.5723859e-001
 -1.5562533e-001
 -1.6414363e-001
 -1.7244593e-001
 -1.7202741e-001
 -1.9459150e-001
 -2.2231180e-001
 -2.3257785e-001
 -2.4919944e-001
 -2.7144165e-001
 -2.7704693e-001
 -2.7523202e-001
 -2.9856055e-001
 -3.1606777e-001
 -3.1027820e-001
 -3.2341824e-001
 -3.3991968e-001
 -3.4868568e-001
 -3.4676234e-001
 -3.5365440e-001
 -3.5182132e-001
 -3.4622535e-001
 -3.4447096e-001
 -3.4795782e-001
 -3.3536162e-001
 -3.3832366e-001
 -3.5250151e-001
 -3.3619613e-001
 -3.5020141e-001
 -3.7229735e-001
 -3.7375538e-001
 -3.5592143e-001
 -3.5510977e-001
 -3.5354648e-001
 -3.3531764e-001
 -3.4766499e-001
 -3.5792155e-001
 -3.4413991e-001
 -3.4904610e-001
 -3.7335944e-001
 -3.7686019e-001
 -3.7166030e-001
 -3.9523806e-001
 -3.8985755e-001
 -3.8068499e-001
 -3.8266468e-001
 -3.9999375e-001
 -3.9380115e-001
 -3.8929657e-001
 -4.0459385e-001
 -3.9538394e-001
 -3.7705895e-001
 -3.9570638e-001
 -4.1036524e-001
 -3.9119864e-001
 -3.9440696e-001
 -4.1496733e-001
 -4.0792511e-001
 -4.0952795e-001
 -4.1969614e-001
 -4.3053423e-001
 -4.2271613e-001
 -4.0375552e-001
 -4.1321483e-001
 -3.8924079e-001
 -3.8908677e-001
 -3.9420817e-001
 -3.8553642e-001
 -3.8026415e-001
 -4.0674146e-001
 -3.9931825e-001
 -3.9407123e-001
 -4.0542642e-001
 -3.9967778e-001
 -3.7694186e-001
 -3.8019573e-001
 -3.9165011e-001
 -3.8156833e-001
 -3.7757114e-001
 -3.9822048e-001
 -3.9433620e-001
 -3.9176311e-001
 -4.1728717e-001
 -4.0012937e-001
 -3.7119738e-001
 -3.8150863e-001
 -3.9571600e-001
 -3.7611176e-001
 -3.6210579e-001
 -3.7543668e-001
 -3.6385042e-001
 -3.6086389e-001
 -3.7106769e-001
 -3.6678247e-001
 -3.5921016e-001
 -3.4613014e-001
 -3.4318551e-001
 -2.7537455e-001
 -1.8056977e-001
  3.1044085e-001
  7.2219701e-001
  2.7603904e-001
  1.6495122e-002
  1.6900074e-002
  3.8645644e-002
  5.2400192e-002
  6.4073808e-002
  8.8366827e-002
  5.8831766e-002
  2.0811552e-002
  2.2262199e-002
  2.0339099e-003
 -8.0605644e-002
 -1.8378945e-001
 -2.8574828e-001
 -3.8008478e-001
 -5.3697438e-001
 -6.6523255e-001
 -6.7234464e-001
 -5.9931157e-001
 -5.7573616e-001
 -5.6291691e-001
 -5.7116149e-001
 -5.3728094e-001
 -4.7279088e-001
 -4.3910054e-001
 -3.9889441e-001
 -3.8306406e-001
 -3.8701369e-001
 -4.1326205e-001
 -4.1367244e-001
 -4.0108717e-001
 -3.8810342e-001
 -3.6767306e-001
 -3.5801376e-001
 -3.5170522e-001
 -3.4613371e-001
 -3.2173702e-001
 -3.0342064e-001
 -3.1201600e-001
 -3.0666179e-001
 -3.0299960e-001
 -3.2177399e-001
 -3.2028523e-001
 -2.9506388e-001
 -2.6911728e-001
 -2.7772881e-001
 -2.4884677e-001
 -2.5299483e-001
 -2.6606674e-001
 -2.6685707e-001
 -2.6655548e-001
 -2.7424487e-001
 -2.4691977e-001
 -2.0241036e-001
 -2.0067754e-001
 -2.1315114e-001
 -1.9902018e-001
 -1.8267135e-001
 -1.9233421e-001
 -1.6719717e-001
 -1.4243960e-001
 -1.4274858e-001
 -1.3753424e-001
 -1.1301798e-001
 -1.2304445e-001
 -1.2685110e-001
 -1.0884257e-001
 -8.5511273e-002
 -9.3409079e-002
 -7.8566871e-002
 -5.4519239e-002
 -7.5233657e-002
 -1.0149419e-001
 -1.0787722e-001
 -1.1978278e-001
 -1.5493783e-001
 -1.5320639e-001
 -1.4716418e-001
 -1.7950798e-001
 -1.9632472e-001
 -2.1511013e-001
 -2.6455369e-001
 -2.7483110e-001
 -2.4751508e-001
 -2.4795528e-001
 -2.6365688e-001
 -2.6714818e-001
 -2.5429634e-001
 -2.6124067e-001
 -2.7042497e-001
 -2.8310091e-001
 -2.8804711e-001
 -2.9198773e-001
 -3.0730180e-001
 -2.8781800e-001
 -2.6785685e-001
 -2.5763115e-001
 -2.7666668e-001
 -2.9915575e-001
 -2.8485606e-001
 -2.5381235e-001
 -2.7346085e-001
 -2.9198703e-001
 -2.8529180e-001
 -2.7948896e-001
 -2.9311116e-001
 -2.9949048e-001
 -3.1010655e-001
 -3.2709376e-001
 -3.1564444e-001
 -2.9894127e-001
 -3.1222440e-001
 -3.1935810e-001
 -3.0687653e-001
 -3.0340105e-001
 -3.1335631e-001
 -3.0226615e-001
 -3.0334010e-001
 -3.3184740e-001
 -3.3522591e-001
 -3.3396839e-001
 -3.2466770e-001
 -3.1434982e-001
 -3.0731395e-001
 -3.1614787e-001
 -3.0068335e-001
 -3.0041797e-001
 -3.1582826e-001
 -3.4259985e-001
 -3.3250684e-001
 -3.1560307e-001
 -3.4140794e-001
 -3.4148327e-001
 -3.3392294e-001
 -3.3151119e-001
 -3.3566278e-001
 -3.3024678e-001
 -3.1760476e-001
 -3.2703281e-001
 -3.2365735e-001
 -3.1304775e-001
 -3.1853575e-001
 -3.1965379e-001
 -3.1042492e-001
 -3.1314252e-001
 -3.3469060e-001
 -3.2808855e-001
 -3.1641182e-001
 -3.2226106e-001
 -3.1420461e-001
 -3.0567279e-001
 -3.1661605e-001
 -3.1710588e-001
 -3.0541034e-001
 -3.1033331e-001
 -3.3060564e-001
 -3.0854268e-001
 -3.0090806e-001
 -3.2152348e-001
 -3.2149647e-001
 -3.1872290e-001
 -3.1181157e-001
 -3.1803353e-001
 -2.7816052e-001
 -2.7003205e-001
 -2.4860559e-001
 -1.7492502e-001
  1.3562706e-001
  6.8646643e-001
  4.3835023e-001
  8.9498573e-002
  1.0485491e-001
  1.0295266e-001
  1.2221709e-001
  1.1591044e-001
  9.1044260e-002
  6.6020421e-002
  4.5727316e-002
  1.6618285e-002
 -2.3623037e-002
 -1.0003775e-001
 -2.0434881e-001
 -3.2005924e-001
 -4.0974987e-001
 -5.3535483e-001
 -6.8235457e-001
 -7.3299298e-001
 -6.8092278e-001
 -6.4540807e-001
 -6.1631541e-001
 -5.9610449e-001
 -5.8338561e-001
 -5.3980593e-001
 -4.6495164e-001
 -4.0782147e-001
 -4.0588707e-001
 -3.9508397e-001
 -3.8861825e-001
 -4.1315450e-001
 -4.0131287e-001
 -3.6875291e-001
 -3.6318763e-001
 -3.6090060e-001
 -3.4413979e-001
 -3.4773687e-001
 -3.6008036e-001
 -3.4109907e-001
 -3.3933512e-001
 -3.5554949e-001
 -3.4787611e-001
 -3.3166947e-001
 -3.4530948e-001
 -3.4183350e-001
 -3.2962335e-001
 -3.3384454e-001
 -3.4185362e-001
 -3.2774609e-001
 -3.2047257e-001
 -3.2541655e-001
 -3.1539014e-001
 -2.9625444e-001
 -2.9230785e-001
 -2.8581121e-001
 -2.6916580e-001
 -2.5916764e-001
 -2.5839702e-001
 -2.4397317e-001
 -2.2811406e-001
 -2.3943477e-001
 -2.0801194e-001
 -1.8825651e-001
 -1.8726067e-001
 -1.7116532e-001
 -1.5661446e-001
 -1.5408553e-001
 -1.6618275e-001
 -1.5411822e-001
 -1.3738274e-001
 -1.4690191e-001
 -1.4085011e-001
 -1.1810429e-001
 -1.3459973e-001
 -1.6052352e-001
 -1.6752838e-001
 -1.7576600e-001
 -2.0418048e-001
 -2.0581937e-001
 -2.2304143e-001
 -2.5434587e-001
 -2.6526007e-001
 -2.7638946e-001
 -3.0500767e-001
 -3.0516695e-001
 -3.0756773e-001
 -3.1965482e-001
 -3.2494320e-001
 -3.2422391e-001
 -3.2984263e-001
 -3.3734760e-001
 -3.3262180e-001
 -3.1996512e-001
 -3.4655711e-001
 -3.4702527e-001
 -3.3336355e-001
 -3.3969610e-001
 -3.4889626e-001
 -3.4055951e-001
 -3.3574283e-001
 -3.5173396e-001
 -3.5147853e-001
 -3.4191065e-001
 -3.5027017e-001
 -3.5506041e-001
 -3.5413460e-001
 -3.6669889e-001
 -3.8222533e-001
 -3.7567465e-001
 -3.6742682e-001
 -3.8426560e-001
 -3.8845840e-001
 -3.7993586e-001
 -3.9348870e-001
 -3.9369468e-001
 -3.8853224e-001
 -3.9585760e-001
 -4.0586951e-001
 -3.9888112e-001
 -4.0109654e-001
 -4.1070463e-001
 -4.1792596e-001
 -4.0008307e-001
 -4.1737278e-001
 -4.1676957e-001
 -4.0938196e-001
 -4.1117495e-001
 -4.1006073e-001
 -4.0320114e-001
 -4.0833104e-001
 -4.2048603e-001
 -4.0947258e-001
 -4.0651490e-001
 -4.3021240e-001
 -4.3258203e-001
 -4.0275469e-001
 -4.1199141e-001
 -4.2244724e-001
 -4.1510245e-001
 -4.0468535e-001
 -4.1048229e-001
 -4.0726024e-001
 -3.9256991e-001
 -4.1031950e-001
 -4.0636460e-001
 -3.8296424e-001
 -3.9608437e-001
 -4.0766115e-001
 -3.9816881e-001
 -3.8983477e-001
 -4.0446719e-001
 -3.9744564e-001
 -3.7990448e-001
 -3.8429243e-001
 -3.8965850e-001
 -3.7972100e-001
 -3.8810297e-001
 -3.7959913e-001
 -3.7821398e-001
 -3.6916590e-001
 -3.7689782e-001
 -3.4932934e-001
 -3.2806920e-001
 -2.8968885e-001
 -1.5162924e-001
  3.9844851e-001
  5.6781326e-001
  1.0300444e-001
  1.8485574e-002
  4.8055555e-002
  3.4757217e-002
  5.3798165e-002
  6.9487826e-002
  5.7700296e-002
  3.2595175e-002
  4.6126909e-002
  3.6459830e-002
 -2.0227302e-003
 -3.4886475e-002
 -1.0784263e-001
 -2.2274245e-001
 -3.1971231e-001
 -4.1014735e-001
 -5.5830315e-001
 -6.4342257e-001
 -5.8649215e-001
 -5.2825358e-001
 -5.2283825e-001
 -5.1279935e-001
 -5.2278246e-001
 -5.1998859e-001
 -4.8478644e-001
 -4.2227120e-001
 -4.1144803e-001
 -4.4519865e-001
 -4.3064791e-001
 -4.5391770e-001
 -4.7027086e-001
 -4.3786239e-001
 -4.1690603e-001
 -4.2246390e-001
 -4.0952701e-001
 -3.9166857e-001
 -3.9951831e-001
 -3.9713959e-001
 -3.8428620e-001
 -3.9089861e-001
 -3.9715065e-001
 -3.7920068e-001
 -3.7193645e-001
 -3.8468917e-001
 -3.8352161e-001
 -3.6579544e-001
 -3.7746079e-001
 -3.7056837e-001
 -3.5712512e-001
 -3.5899606e-001
 -3.6587231e-001
 -3.3526890e-001
 -3.3530417e-001
 -3.3837971e-001
 -3.3404665e-001
 -3.2720299e-001
 -3.2903234e-001
 -3.1170498e-001
 -2.8458144e-001
 -2.7509123e-001
 -2.6517245e-001
 -2.4395562e-001
 -2.3763602e-001
 -2.3522715e-001
 -2.3849334e-001
 -2.1302109e-001
 -2.1741324e-001
 -2.2225488e-001
 -2.0021207e-001
 -2.0511379e-001
 -2.0661107e-001
 -2.0935120e-001
 -2.0399572e-001
 -2.1360270e-001
 -2.1879835e-001
 -2.1571348e-001
 -2.3926213e-001
 -2.4722227e-001
 -2.4454501e-001
 -2.5722959e-001
 -2.7183496e-001
 -2.6718281e-001
 -2.7222555e-001
 -2.8975762e-001
 -3.0221530e-001
 -2.9084833e-001
 -3.1495321e-001
 -3.1300440e-001
 -2.9665872e-001
 -3.2305893e-001
 -3.2537581e-001
 -3.0893432e-001
 -3.0823928e-001
 -3.3317723e-001
 -3.3155114e-001
 -3.1627685e-001
 -3.3132755e-001
 -3.3522994e-001
 -3.2246490e-001
 -3.3625983e-001
 -3.3703904e-001
 -3.2128342e-001
 -3.2819011e-001
 -3.5629102e-001
 -3.4746004e-001
 -3.4007558e-001
 -3.6293545e-001
 -3.5461371e-001
 -3.2743130e-001
 -3.2974844e-001
 -3.3462037e-001
 -3.2172954e-001
 -3.2669761e-001
 -3.3685304e-001
 -3.2375527e-001
 -3.1236419e-001
 -3.3864475e-001
 -3.5147843e-001
 -3.3374795e-001
 -3.4584976e-001
 -3.6413290e-001
 -3.5603224e-001
 -3.7707303e-001
 -4.0821121e-001
 -4.0449240e-001
 -3.8716530e-001
 -4.0516339e-001
 -4.1722234e-001
 -4.1107925e-001
 -4.0617989e-001
 -4.2346497e-001
 -4.1661444e-001
 -4.1476786e-001
 -4.3676346e-001
 -4.2952372e-001
 -4.1788898e-001
 -4.3009411e-001
 -4.4764383e-001
 -4.2879941e-001
 -4.2679084e-001
 -4.4038937e-001
 -4.3377702e-001
 -4.3722359e-001
 -4.4644125e-001
 -4.5033396e-001
 -4.2752878e-001
 -4.4636791e-001
 -4.4595818e-001
 -4.2411365e-001
 -4.2999344e-001
 -4.2734645e-001
 -4.2435169e-001
 -4.2544648e-001
 -4.3162076e-001
 -4.2842460e-001
 -4.0421671e-001
 -4.1248135e-001
 -4.1528536e-001
 -3.9496163e-001
 -4.1783362e-001
 -4.2606954e-001
 -3.9730578e-001
 -3.8427384e-001
 -3.8216181e-001
 -3.1461349e-001
 -1.5984043e-001
  3.9670907e-001
  4.6346847e-001
  1.0309585e-002
 -3.3252542e-002
 -2.0536848e-002
  1.4637203e-003
  4.2395823e-004
  6.9705147e-003
  5.0230892e-004
 -2.2682824e-002
 -1.9754218e-002
 -9.1524966e-003
 -1.7558973e-002
 -7.5116014e-002
 -1.6589172e-001
 -2.5939604e-001
 -3.4408968e-001
 -5.0819535e-001
 -6.0519080e-001
 -5.4822182e-001
 -4.9025588e-001
 -5.0872503e-001
 -5.2493214e-001
 -5.4503490e-001
 -5.3903670e-001
 -4.8734385e-001
 -4.7756360e-001
 -4.7966954e-001
 -4.8618746e-001
 -4.6973277e-001
 -5.0285862e-001
 -5.1294225e-001
 -4.7735739e-001
 -4.6150794e-001
 -4.6274606e-001
 -4.4335539e-001
 -4.3673371e-001
 -4.5443853e-001
 -4.4556119e-001
 -4.3109736e-001
 -4.4970778e-001
 -4.3402084e-001
 -4.1498092e-001
 -4.2485073e-001
 -4.2650025e-001
 -3.9645231e-001
 -3.8974491e-001
 -4.0944270e-001
 -3.8709276e-001
 -3.6190575e-001
 -3.7099686e-001
 -3.6202980e-001
 -3.5180628e-001
 -3.4995161e-001
 -3.4926498e-001
 -3.3265792e-001
 -3.2404816e-001
 -3.1609008e-001
 -2.7849002e-001
 -2.5882938e-001
 -2.6377136e-001
 -2.5900436e-001
 -2.3916240e-001
 -2.4403952e-001
 -2.6221108e-001
 -2.5548127e-001
 -2.5450526e-001
 -2.6600758e-001
 -2.5657746e-001
 -2.6168767e-001
 -2.9485224e-001
 -2.9699679e-001
 -2.7527736e-001
 -3.0059782e-001
 -3.1985058e-001
 -3.1276184e-001
 -3.1297860e-001
 -3.3094140e-001
 -3.2683361e-001
 -3.3363211e-001
 -3.4790094e-001
 -3.5035615e-001
 -3.4363073e-001
 -3.5187450e-001
 -3.6407741e-001
 -3.3816216e-001
 -3.3973995e-001
 -3.6613630e-001
 -3.6303400e-001
 -3.4014516e-001
 -3.5199721e-001
 -3.5497454e-001
 -3.5595248e-001
 -3.4604374e-001
 -3.5004026e-001
 -3.3595988e-001
 -3.4343207e-001
 -3.5800159e-001
 -3.4492209e-001
 -3.3603274e-001
 -3.5030235e-001
 -3.5999246e-001
 -3.4670122e-001
 -3.4942618e-001
 -3.6420628e-001
 -3.5758095e-001
 -3.5716620e-001
 -3.6014113e-001
 -3.6490015e-001
 -3.5272853e-001
 -3.5559710e-001
 -3.6626560e-001
 -3.5730567e-001
 -3.8329315e-001
 -4.0881620e-001
 -3.9253101e-001
 -3.7793821e-001
 -3.7195796e-001
 -3.7776412e-001
 -3.7161036e-001
 -3.7423829e-001
 -3.8232609e-001
 -3.6955055e-001
 -3.8946179e-001
 -4.0980144e-001
 -4.1081864e-001
 -4.0444270e-001
 -4.0282118e-001
 -3.7856552e-001
 -3.8552799e-001
 -4.1536353e-001
 -3.8334962e-001
 -3.4213472e-001
 -3.3341211e-001
 -3.4053868e-001
 -3.3735520e-001
 -3.5198884e-001
 -3.7615148e-001
 -3.4551339e-001
 -3.2008871e-001
 -3.6267692e-001
 -3.9388433e-001
 -3.8417975e-001
 -4.1595188e-001
 -4.4422382e-001
 -3.9608788e-001
 -3.7349113e-001
 -3.8131303e-001
 -3.7822932e-001
 -3.7437054e-001
 -3.9812481e-001
 -4.1180195e-001
 -3.8950944e-001
 -3.9421275e-001
 -3.9436875e-001
 -3.7768780e-001
 -3.5106769e-001
 -2.9707308e-001
 -1.8319109e-001
  4.1384249e-001
  5.3274643e-001
  3.7709668e-002
  2.0650768e-002
  6.0414005e-002
  9.0417621e-002
  1.3833303e-001
  1.6689190e-001
  1.7028869e-001
  1.7951557e-001
  2.3382602e-001
  2.5276325e-001
  2.4165272e-001
  2.4548572e-001
  1.7046287e-001
  4.6046551e-002
 -2.6433353e-002
 -1.8420201e-001
 -3.6614605e-001
 -3.7936119e-001
 -3.4100227e-001
 -3.8292153e-001
 -4.3108579e-001
 -4.7911088e-001
 -5.3459568e-001
 -5.3422191e-001
 -5.0720891e-001
 -5.2387430e-001
 -5.1987814e-001
 -4.9560494e-001
 -4.9915279e-001
 -5.1588750e-001
 -5.1400447e-001
 -4.7277303e-001
 -4.6924462e-001
 -4.8142788e-001
 -4.4715488e-001
 -4.3860966e-001
 -4.4756527e-001
 -4.3281551e-001
 -4.1926469e-001
 -4.2757214e-001
 -4.4396344e-001
 -4.2567742e-001
 -4.2341202e-001
 -4.4232737e-001
 -4.2852603e-001
 -4.1620592e-001
 -4.3531558e-001
 -4.2195459e-001
 -4.0444335e-001
 -4.0990468e-001
 -3.9506303e-001
 -3.7174730e-001
 -3.6945047e-001
 -3.6860343e-001
 -3.3939355e-001
 -3.2524788e-001
 -3.2998396e-001
 -2.9741178e-001
 -2.7989798e-001
 -2.8980676e-001
 -2.8275321e-001
 -2.5831604e-001
 -2.6886954e-001
 -2.7881900e-001
 -2.5701133e-001
 -2.6460942e-001
 -2.8875146e-001
 -2.8660896e-001
 -2.9164886e-001
 -3.0746354e-001
 -3.1658974e-001
 -3.2050231e-001
 -3.3157561e-001
 -3.4588716e-001
 -3.3891637e-001
 -3.4675978e-001
 -3.6655586e-001
 -3.6550953e-001
 -3.6499820e-001
 -3.8077988e-001
 -3.8097900e-001
 -3.7277699e-001
 -3.8324748e-001
 -3.9949372e-001
 -3.8394106e-001
 -3.7472668e-001
 -3.9625322e-001
 -3.9258127e-001
 -3.8304146e-001
 -3.9451246e-001
 -3.9911328e-001
 -3.8512221e-001
 -3.8750309e-001
 -4.0605178e-001
 -3.8933357e-001
 -3.7798730e-001
 -4.0535423e-001
 -3.8916647e-001
 -3.8545930e-001
 -4.0527683e-001
 -4.0653227e-001
 -3.9625248e-001
 -4.0343119e-001
 -4.2077415e-001
 -3.9945052e-001
 -4.0676508e-001
 -4.1967140e-001
 -4.1839182e-001
 -4.1410769e-001
 -4.2679022e-001
 -4.2899410e-001
 -4.2028028e-001
 -4.3475950e-001
 -4.4707502e-001
 -4.3401259e-001
 -4.3309124e-001
 -4.5231630e-001
 -4.4606207e-001
 -4.3359233e-001
 -4.5753177e-001
 -4.5956811e-001
 -4.2988522e-001
 -4.4850098e-001
 -4.6701302e-001
 -4.5350572e-001
 -4.5830807e-001
 -4.7721102e-001
 -4.6147907e-001
 -4.5607808e-001
 -4.6635356e-001
 -4.7090072e-001
 -4.4649266e-001
 -4.6847446e-001
 -4.7960444e-001
 -4.6094921e-001
 -4.6338179e-001
 -4.7743968e-001
 -4.6927703e-001
 -4.5988153e-001
 -4.6625315e-001
 -4.7156582e-001
 -4.5693443e-001
 -4.6121349e-001
 -4.6426694e-001
 -4.5035239e-001
 -4.4681162e-001
 -4.6422248e-001
 -4.5167482e-001
 -4.4255635e-001
 -4.5158916e-001
 -4.5301590e-001
 -4.3284864e-001
 -4.2161505e-001
 -3.7891800e-001
 -2.5024777e-001
  3.2351219e-001
  5.9982748e-001
  1.0996039e-001
 -3.0118521e-002
  1.9775292e-002
  1.6047550e-002
  2.9923975e-002
  2.9698938e-002
  6.4608637e-003
 -1.4780532e-003
  1.6356572e-003
 -3.9665546e-002
 -1.2122228e-001
 -1.9462813e-001
 -2.9015484e-001
 -3.7124193e-001
 -4.7270563e-001
 -6.1010313e-001
 -6.3451229e-001
 -5.5307483e-001
 -4.7125552e-001
 -4.5749462e-001
 -4.6563640e-001
 -4.9218619e-001
 -5.0836419e-001
 -4.6837814e-001
 -4.2982755e-001
 -4.6205078e-001
 -5.0392729e-001
 -5.0256993e-001
 -5.1365988e-001
 -5.3199124e-001
 -5.1173725e-001
 -5.0256176e-001
 -5.1857811e-001
 -5.0572224e-001
 -4.8525185e-001
 -4.9615029e-001
 -4.9532982e-001
 -4.7038058e-001
 -4.8238478e-001
 -4.8713992e-001
 -4.6201867e-001
 -4.5681751e-001
 -4.5624342e-001
 -4.4961041e-001
 -4.4213667e-001
 -4.4795932e-001
 -4.3943219e-001
 -4.2606172e-001
 -4.2300423e-001
 -4.1785824e-001
 -3.9890452e-001
 -3.9105441e-001
 -4.0678241e-001
 -3.7622354e-001
 -3.5449581e-001
 -3.5419499e-001
 -3.5155725e-001
 -3.2104131e-001
 -3.2064695e-001
 -3.2098929e-001
 -2.9697276e-001
 -2.9504519e-001
 -3.0125754e-001
 -2.9261678e-001
 -2.7205597e-001
 -2.8093576e-001
 -2.8570863e-001
 -2.7160131e-001
 -2.8073819e-001
 -2.9363069e-001
 -2.8712196e-001
 -2.8540884e-001
 -3.1036801e-001
 -3.0741251e-001
 -3.0955483e-001
 -3.2221677e-001
 -3.3812188e-001
 -3.2815224e-001
 -3.3946361e-001
 -3.5884676e-001
 -3.5011428e-001
 -3.4844757e-001
 -3.6391539e-001
 -3.6129570e-001
 -3.4720242e-001
 -3.6257955e-001
 -3.6525460e-001
 -3.5484124e-001
 -3.5697450e-001
 -3.6327761e-001
 -3.4941519e-001
 -3.4323938e-001
 -3.5234379e-001
 -3.5894945e-001
 -3.4789092e-001
 -3.5734498e-001
 -3.5646311e-001
 -3.3724238e-001
 -3.4520601e-001
 -3.5784994e-001
 -3.4570590e-001
 -3.3956985e-001
 -3.5536577e-001
 -3.5778124e-001
 -3.4497526e-001
 -3.6021319e-001
 -3.7906947e-001
 -3.6165351e-001
 -3.5469340e-001
 -3.6883883e-001
 -3.7204059e-001
 -3.5909934e-001
 -3.7695027e-001
 -3.7435666e-001
 -3.7113299e-001
 -3.7759287e-001
 -3.9957588e-001
 -3.7726700e-001
 -3.8616148e-001
 -3.9722620e-001
 -3.9031093e-001
 -3.8847819e-001
 -4.0261581e-001
 -3.9517370e-001
 -3.8987930e-001
 -3.9375060e-001
 -4.0440010e-001
 -3.9185796e-001
 -3.9563088e-001
 -4.0838242e-001
 -4.0401874e-001
 -3.9041562e-001
 -4.0663078e-001
 -4.0796267e-001
 -3.9651426e-001
 -4.0106376e-001
 -4.0521686e-001
 -4.0871979e-001
 -4.0209273e-001
 -4.0881281e-001
 -4.0279623e-001
 -3.9239756e-001
 -4.1079072e-001
 -4.1806253e-001
 -3.9532491e-001
 -4.0641881e-001
 -4.1675300e-001
 -3.9582244e-001
 -3.9778271e-001
 -4.0846621e-001
 -3.9483658e-001
 -3.9253676e-001
 -4.0712069e-001
 -3.9491951e-001
 -3.9117203e-001
 -3.9726000e-001
 -3.8939012e-001
 -3.7094972e-001
 -3.6313333e-001
 -3.6647398e-001
 -2.8771689e-001
 -1.9598745e-001
  2.3852489e-001
  6.6398992e-001
  2.5962508e-001
 -2.7219139e-003
  2.3859670e-002
  3.3939474e-002
  2.3146035e-002
  2.2655302e-002
  2.6729151e-002
 -2.2681197e-003
 -1.9228342e-002
 -2.3011559e-002
 -4.7114415e-002
 -1.0867360e-001
 -2.1232256e-001
 -3.0785517e-001
 -4.0377207e-001
 -5.4411652e-001
 -6.1293054e-001
 -5.5021439e-001
 -5.0769735e-001
 -4.7463391e-001
 -4.6915939e-001
 -4.7445245e-001
 -4.6695719e-001
 -4.0523108e-001
 -3.7007632e-001
 -4.0799966e-001
 -4.2226725e-001
 -4.2048106e-001
 -4.4368643e-001
 -4.4827123e-001
 -4.3374712e-001
 -4.3099274e-001
 -4.4317418e-001
 -4.3408229e-001
 -4.3700080e-001
 -4.4934827e-001
 -4.2679009e-001
 -4.1838362e-001
 -4.3277432e-001
 -4.3568752e-001
 -4.2372441e-001
 -4.3956037e-001
 -4.4401404e-001
 -4.1309344e-001
 -4.0800659e-001
 -4.1098275e-001
 -3.9665079e-001
 -3.7093894e-001
 -3.8504459e-001
 -3.8987151e-001
 -3.5766423e-001
 -3.6148936e-001
 -3.6526307e-001
 -3.2602035e-001
 -3.2356460e-001
 -3.2831595e-001
 -3.0079199e-001
 -2.8732420e-001
 -2.8298732e-001
 -2.7573511e-001
 -2.6160916e-001
 -2.5674070e-001
 -2.5409299e-001
 -2.2268061e-001
 -2.1369946e-001
 -2.1973503e-001
 -2.0347807e-001
 -1.8437140e-001
 -1.9420113e-001
 -1.8470303e-001
 -1.8827974e-001
 -2.0407658e-001
 -2.3094182e-001
 -2.2256552e-001
 -2.3166583e-001
 -2.4863440e-001
 -2.3675136e-001
 -2.4103395e-001
 -2.5917057e-001
 -2.6059585e-001
 -2.4948321e-001
 -2.5801475e-001
 -2.7026427e-001
 -2.6076307e-001
 -2.8138187e-001
 -3.1122116e-001
 -3.0714701e-001
 -3.0335349e-001
 -3.2096555e-001
 -3.0875552e-001
 -2.9107707e-001
 -3.0432568e-001
 -3.0903732e-001
 -2.9087041e-001
 -2.9761220e-001
 -3.1433426e-001
 -3.0750840e-001
 -3.0781187e-001
 -3.3594655e-001
 -3.3641514e-001
 -3.1290991e-001
 -3.1200033e-001
 -3.2603513e-001
 -3.2136629e-001
 -3.2601324e-001
 -3.4678817e-001
 -3.2223795e-001
 -3.0532188e-001
 -3.0864475e-001
 -3.1123893e-001
 -3.1741615e-001
 -3.3575676e-001
 -3.5250572e-001
 -3.3310483e-001
 -3.3300392e-001
 -3.4711868e-001
 -3.4439498e-001
 -3.4183306e-001
 -3.5862550e-001
 -3.5568339e-001
 -3.4559567e-001
 -3.4338247e-001
 -3.5077869e-001
 -3.4713516e-001
 -3.5143976e-001
 -3.7664301e-001
 -3.6717252e-001
 -3.6825743e-001
 -3.7283904e-001
 -3.7506164e-001
 -3.5962158e-001
 -3.7509728e-001
 -3.8190713e-001
 -3.5036586e-001
 -3.4966506e-001
 -3.6342842e-001
 -3.5585840e-001
 -3.4924524e-001
 -3.6810550e-001
 -3.6604463e-001
 -3.6089901e-001
 -3.6112520e-001
 -3.6652076e-001
 -3.4241693e-001
 -3.5340777e-001
 -3.6355704e-001
 -3.4737933e-001
 -3.4152052e-001
 -3.4605883e-001
 -3.5355887e-001
 -3.4471981e-001
 -3.5276798e-001
 -3.4592255e-001
 -3.2104412e-001
 -3.1914242e-001
 -3.3986010e-001
 -3.2840627e-001
 -3.3302003e-001
 -3.6204235e-001
 -3.5242361e-001
