 -9.7451270e-002
 -1.3209472e-001
 -1.2161505e-001
 -1.2593003e-001
 -1.2749617e-001
 -1.2883329e-001
 -1.1935280e-001
 -8.6051738e-002
 -1.2833034e-001
 -2.3449294e-001
 -2.7433269e-001
 -3.3144675e-001
 -4.0908992e-001
 -3.9274777e-001
 -3.7402420e-001
 -4.1028932e-001
 -4.2409698e-001
 -3.8390694e-001
 -3.7714186e-001
 -4.1103078e-001
 -3.8994539e-001
 -3.8422477e-001
 -3.9706122e-001
 -3.8978979e-001
 -3.8013704e-001
 -3.9843354e-001
 -4.0479275e-001
 -4.1060126e-001
 -4.3285959e-001
 -4.1303992e-001
 -3.7395300e-001
 -3.6552479e-001
 -3.7410821e-001
 -4.0581172e-001
 -3.8524802e-001
 -3.3430134e-001
 -3.0041728e-001
 -2.6785965e-001
 -3.8066697e-001
 -5.1387654e-001
 -5.1069633e-001
 -5.2259099e-001
 -5.6791821e-001
 -6.3085117e-001
 -6.5753989e-001
 -7.2802357e-001
 -8.2600541e-001
 -9.0192687e-001
 -9.5693200e-001
 -9.7203081e-001
 -9.1123799e-001
 -8.8867352e-001
 -7.9167288e-001
 -6.6680377e-001
 -5.6985542e-001
 -5.1155392e-001
 -4.5037355e-001
 -3.7932350e-001
 -3.6342673e-001
 -3.5958014e-001
 -3.2891428e-001
 -3.1679712e-001
 -3.4983901e-001
 -3.1392587e-001
 -2.9056467e-001
 -2.9329238e-001
 -2.9832631e-001
 -2.8182612e-001
 -2.9892209e-001
 -3.2171462e-001
 -2.9411011e-001
 -2.7825937e-001
 -2.8833716e-001
 -2.9009380e-001
 -2.8614607e-001
 -2.8455602e-001
 -2.7605891e-001
 -2.6603746e-001
 -2.6767192e-001
 -2.7262258e-001
 -2.3845945e-001
 -2.3420149e-001
 -2.7781901e-001
 -2.6082791e-001
 -2.1743041e-001
 -2.2898022e-001
 -2.2732065e-001
 -1.8823862e-001
 -2.0148388e-001
 -2.3958526e-001
 -1.9907734e-001
 -1.7058882e-001
 -1.8538707e-001
 -1.8296386e-001
 -1.6900598e-001
 -1.5763896e-001
 -1.7101323e-001
 -1.6232254e-001
 -1.5996535e-001
 -1.6618018e-001
 -1.5898526e-001
 -1.6026544e-001
 -1.8181408e-001
 -1.9653915e-001
 -1.8053301e-001
 -1.9423579e-001
 -2.0531726e-001
 -1.9299856e-001
 -1.9366422e-001
 -2.2551512e-001
 -2.1575258e-001
 -2.0700896e-001
 -2.2436540e-001
 -2.5847125e-001
 -2.4650758e-001
 -2.4260658e-001
 -2.6209840e-001
 -2.6383046e-001
 -2.6074233e-001
 -2.7512322e-001
 -2.6348645e-001
 -2.5663785e-001
 -2.7524143e-001
 -2.6298767e-001
 -2.5441479e-001
 -2.6973242e-001
 -2.7245392e-001
 -2.5822164e-001
 -2.6930013e-001
 -2.8783465e-001
 -2.7529182e-001
 -2.6225887e-001
 -2.7570897e-001
 -2.8629747e-001
 -2.6021274e-001
 -2.6599906e-001
 -2.8133664e-001
 -2.7167175e-001
 -2.9638044e-001
 -3.1636479e-001
 -2.8754492e-001
 -2.8201354e-001
 -3.1960441e-001
 -3.1516802e-001
 -3.0430502e-001
 -3.2824882e-001
 -3.5847993e-001
 -3.4551322e-001
 -3.3649909e-001
 -3.7005469e-001
 -3.4989267e-001
 -3.4986841e-001
 -3.7148304e-001
 -3.6378058e-001
 -3.4850380e-001
 -3.5888784e-001
 -3.7621180e-001
 -3.6156336e-001
 -3.5652252e-001
 -3.7792876e-001
 -3.5792597e-001
 -3.3858069e-001
 -3.5271866e-001
 -3.5284449e-001
 -3.3768791e-001
 -3.4278247e-001
 -3.3732120e-001
 -3.3009606e-001
 -3.2603147e-001
 -3.3543769e-001
 -3.0986924e-001
 -2.9745456e-001
 -3.2849292e-001
 -3.3702897e-001
 -3.1020966e-001
 -3.2137827e-001
 -3.3632198e-001
 -2.9626627e-001
 -3.2012572e-001
 -3.4247929e-001
 -3.2523535e-001
 -2.9927236e-001
 -3.0708382e-001
 -3.0760458e-001
 -2.9124786e-001
 -3.1858098e-001
 -3.2047261e-001
 -3.0397265e-001
 -3.1025917e-001
 -3.0874897e-001
 -2.9757148e-001
 -2.6911172e-001
 -2.7714203e-001
 -2.6100285e-001
 -2.3071663e-001
 -2.2710917e-001
 -2.1106377e-001
 -1.6084685e-001
 -1.4876930e-001
 -1.4145429e-001
 -1.0412420e-001
 -8.7852182e-002
 -9.2577189e-002
 -8.8591323e-002
 -5.1020493e-002
 -6.8648290e-002
 -1.3305277e-001
 -1.7492416e-001
 -2.4084337e-001
 -3.2902905e-001
 -3.6286296e-001
 -3.4936068e-001
 -3.5816239e-001
 -3.6367190e-001
 -3.4361862e-001
 -3.5250024e-001
 -3.8133432e-001
 -3.7536560e-001
 -3.2658038e-001
 -3.4400945e-001
 -3.5626604e-001
 -3.4126081e-001
 -3.5357761e-001
 -3.4619878e-001
 -3.5017239e-001
 -3.6713070e-001
 -3.6404203e-001
 -3.3338439e-001
 -3.3704333e-001
 -3.6357832e-001
 -3.7505389e-001
 -3.8933820e-001
 -3.5857309e-001
 -2.9773504e-001
 -2.4844063e-001
 -3.3650367e-001
 -4.8338941e-001
 -5.0303235e-001
 -4.8430670e-001
 -5.3964092e-001
 -6.0277133e-001
 -6.4890722e-001
 -7.0346933e-001
 -8.0847842e-001
 -9.0074922e-001
 -9.3373017e-001
 -9.1918140e-001
 -8.6500081e-001
 -7.9671333e-001
 -6.6731758e-001
 -5.5091305e-001
 -4.8449214e-001
 -4.1225246e-001
 -3.3489153e-001
 -2.9890633e-001
 -3.0075958e-001
 -2.9227901e-001
 -2.6711689e-001
 -2.8074164e-001
 -2.9464738e-001
 -2.5256352e-001
 -2.5654287e-001
 -2.7993789e-001
 -2.5133388e-001
 -2.4340255e-001
 -2.4838952e-001
 -2.6663579e-001
 -2.5392242e-001
 -2.2302853e-001
 -2.2302730e-001
 -2.2260348e-001
 -2.2733146e-001
 -2.4017555e-001
 -2.3611453e-001
 -2.0127858e-001
 -1.9844249e-001
 -2.2846692e-001
 -1.9495010e-001
 -1.7868390e-001
 -1.9691823e-001
 -1.9473189e-001
 -1.5704309e-001
 -1.6720478e-001
 -1.6117971e-001
 -1.3924498e-001
 -1.6027149e-001
 -1.4423505e-001
 -1.2460887e-001
 -1.1328345e-001
 -1.1357266e-001
 -1.0583522e-001
 -1.0285970e-001
 -1.2573396e-001
 -1.1443081e-001
 -1.0036847e-001
 -1.1869513e-001
 -1.0667930e-001
 -8.6050564e-002
 -1.0629890e-001
 -1.2935844e-001
 -1.0400651e-001
 -1.0910880e-001
 -1.4043240e-001
 -1.5679106e-001
 -1.4336014e-001
 -1.4379534e-001
 -1.8653597e-001
 -1.8216591e-001
 -1.6563828e-001
 -1.9982060e-001
 -1.9205335e-001
 -1.8316307e-001
 -2.1005864e-001
 -2.1454155e-001
 -2.0528420e-001
 -2.1509291e-001
 -2.1630295e-001
 -1.9405431e-001
 -2.1647188e-001
 -2.3883685e-001
 -2.4094956e-001
 -2.4446750e-001
 -2.2520913e-001
 -2.2325248e-001
 -2.3157674e-001
 -2.5691537e-001
 -2.5570414e-001
 -2.2668110e-001
 -2.4026928e-001
 -2.8184093e-001
 -2.6206163e-001
 -2.5418700e-001
 -2.7714050e-001
 -2.7444808e-001
 -2.6129746e-001
 -2.9384432e-001
 -3.0769464e-001
 -2.9404646e-001
 -2.8243102e-001
 -3.1867880e-001
 -3.0002090e-001
 -2.8394236e-001
 -3.0597632e-001
 -3.2186432e-001
 -3.1462963e-001
 -3.2311705e-001
 -3.3534732e-001
 -3.1062015e-001
 -3.2488540e-001
 -3.4376832e-001
 -3.3017998e-001
 -3.1512991e-001
 -3.3540947e-001
 -3.4262814e-001
 -3.3131328e-001
 -3.1554474e-001
 -3.0868680e-001
 -3.0766744e-001
 -3.1074906e-001
 -3.1503554e-001
 -2.9997464e-001
 -3.0162976e-001
 -3.1430450e-001
 -3.1660123e-001
 -3.0753219e-001
 -2.9667483e-001
 -2.9751227e-001
 -2.9575398e-001
 -3.0210124e-001
 -2.9757379e-001
 -2.8038045e-001
 -2.8450646e-001
 -3.0066340e-001
 -2.9925911e-001
 -2.8521746e-001
 -3.0034973e-001
 -2.8177544e-001
 -2.6785930e-001
 -2.8327511e-001
 -2.9752308e-001
 -2.8759248e-001
 -2.6801396e-001
 -2.7960310e-001
 -2.8671946e-001
 -2.7349875e-001
 -2.7685035e-001
 -2.6240573e-001
 -2.1128084e-001
 -2.0175183e-001
 -2.1183941e-001
 -1.9696109e-001
 -1.5442202e-001
 -1.1284017e-001
 -9.1686360e-002
 -6.2687562e-002
 -8.4302087e-002
 -4.8429651e-002
  1.2290024e-002
 -6.1964528e-004
 -4.7047466e-002
 -1.1646434e-001
 -1.6280625e-001
 -2.4733464e-001
 -3.1016179e-001
 -3.1500453e-001
 -3.1031049e-001
 -3.1731033e-001
 -2.9556755e-001
 -3.0770841e-001
 -3.2287190e-001
 -3.1076421e-001
 -3.0835951e-001
 -3.1227303e-001
 -3.1999380e-001
 -2.9788425e-001
 -2.8745287e-001
 -3.1941990e-001
 -3.1565622e-001
 -3.4071966e-001
 -3.4705037e-001
 -3.4147559e-001
 -3.1130233e-001
 -3.3290241e-001
 -3.3447952e-001
 -3.1258738e-001
 -3.4780394e-001
 -3.2122630e-001
 -2.7634403e-001
 -2.6442631e-001
 -3.6505199e-001
 -4.6347549e-001
 -4.8282930e-001
 -5.2314941e-001
 -5.7810208e-001
 -6.3597936e-001
 -6.7572256e-001
 -7.4819908e-001
 -8.4691141e-001
 -9.0615346e-001
 -9.1949467e-001
 -8.4480682e-001
 -7.9463941e-001
 -7.0287308e-001
 -5.4994136e-001
 -4.7218022e-001
 -4.2988130e-001
 -3.5486544e-001
 -3.0214018e-001
 -2.8349204e-001
 -2.8212130e-001
 -2.7137701e-001
 -2.5623360e-001
 -2.6439872e-001
 -2.6592462e-001
 -2.6086901e-001
 -2.7276392e-001
 -2.6680685e-001
 -1.9709177e-001
 -2.1598329e-001
 -2.5572290e-001
 -2.3512495e-001
 -2.3701820e-001
 -2.3578672e-001
 -2.1614425e-001
 -2.2062341e-001
 -2.2429597e-001
 -2.2689971e-001
 -1.9460855e-001
 -2.0481757e-001
 -2.2896692e-001
 -1.8913374e-001
 -1.6144753e-001
 -1.9227552e-001
 -1.9706108e-001
 -1.2505446e-001
 -1.4059075e-001
 -1.8321845e-001
 -1.3831343e-001
 -1.3487854e-001
 -1.4758489e-001
 -1.3937452e-001
 -1.0204375e-001
 -1.0760442e-001
 -1.1115790e-001
 -1.0881187e-001
 -1.2023208e-001
 -1.1076999e-001
 -8.9686009e-002
 -9.0387188e-002
 -1.3355066e-001
 -1.4300212e-001
 -7.5596735e-002
 -8.5281312e-002
 -1.4258206e-001
 -1.0479144e-001
 -1.0193458e-001
 -1.3536095e-001
 -1.3439413e-001
 -1.6004724e-001
 -1.9088985e-001
 -1.8097013e-001
 -1.7444489e-001
 -2.0749509e-001
 -2.1198811e-001
 -2.1328656e-001
 -2.3609011e-001
 -2.4742312e-001
 -2.2361870e-001
 -2.2820235e-001
 -2.5991379e-001
 -2.4843651e-001
 -2.3962617e-001
 -2.6415260e-001
 -2.7212969e-001
 -2.5179752e-001
 -2.7951911e-001
 -2.8320416e-001
 -2.6135157e-001
 -2.6516682e-001
 -2.9251615e-001
 -2.8633016e-001
 -2.7332680e-001
 -3.0635448e-001
 -3.1836775e-001
 -2.9061614e-001
 -2.9471117e-001
 -3.1280255e-001
 -3.0551004e-001
 -2.9733403e-001
 -3.3733856e-001
 -3.4395805e-001
 -3.2995917e-001
 -3.3520285e-001
 -3.4968481e-001
 -3.2798844e-001
 -3.4860188e-001
 -3.6832538e-001
 -3.3919223e-001
 -3.5628995e-001
 -3.6991794e-001
 -3.5641249e-001
 -3.5283159e-001
 -3.7217760e-001
 -3.6630082e-001
 -3.4155780e-001
 -3.5032225e-001
 -3.6971034e-001
 -3.5923951e-001
 -3.6644076e-001
 -3.7404534e-001
 -3.3676703e-001
 -3.2656398e-001
 -3.6023259e-001
 -3.5032771e-001
 -3.3785383e-001
 -3.5042772e-001
 -3.4259131e-001
 -3.3233004e-001
 -3.5229817e-001
 -3.4412172e-001
 -3.1409159e-001
 -3.3991633e-001
 -3.6248227e-001
 -3.3423992e-001
 -3.1924224e-001
 -3.4546462e-001
 -3.3635716e-001
 -3.2160102e-001
 -3.3145614e-001
 -3.2646819e-001
 -3.2175131e-001
 -3.3931307e-001
 -3.3351202e-001
 -3.0869056e-001
 -3.0957776e-001
 -3.2128715e-001
 -3.0976110e-001
 -3.0134345e-001
 -3.3648773e-001
 -3.2595385e-001
 -2.9067529e-001
 -3.1425399e-001
 -3.2806560e-001
 -2.9716206e-001
 -2.9396649e-001
 -3.1490358e-001
 -2.9076800e-001
 -2.7607882e-001
 -2.5958805e-001
 -2.2851002e-001
 -2.0872941e-001
 -1.8959554e-001
 -1.7236691e-001
 -1.2370250e-001
 -9.1461463e-002
 -1.0094532e-001
 -1.1252819e-001
 -8.0397284e-002
 -7.3613975e-002
 -4.9916776e-002
 -6.2955716e-002
 -1.5936906e-001
 -2.3935993e-001
 -2.9046801e-001
 -3.5154148e-001
 -3.6785143e-001
 -3.4959192e-001
 -3.4520703e-001
 -3.6008025e-001
 -3.4774669e-001
 -3.3790354e-001
 -3.6488797e-001
 -3.7630398e-001
 -3.4293543e-001
 -3.3869995e-001
 -3.5718685e-001
 -3.4843457e-001
 -3.4319733e-001
 -3.5577951e-001
 -3.5374262e-001
 -3.3228828e-001
 -3.4976271e-001
 -3.6136470e-001
 -3.5092880e-001
 -3.4416081e-001
 -3.4010597e-001
 -3.5795729e-001
 -3.7465152e-001
 -3.4041158e-001
 -2.7263668e-001
 -2.1825529e-001
 -3.0538262e-001
 -4.8746056e-001
 -5.1777369e-001
 -4.9599761e-001
 -5.5236005e-001
 -6.2765428e-001
 -6.6470046e-001
 -7.1784396e-001
 -8.0170796e-001
 -8.7147133e-001
 -9.2848618e-001
 -9.2783648e-001
 -8.5732277e-001
 -8.1129820e-001
 -6.8842258e-001
 -5.6075308e-001
 -4.9254142e-001
 -4.1633540e-001
 -3.5675487e-001
 -3.0294730e-001
 -2.7788894e-001
 -3.0184418e-001
 -2.8583089e-001
 -2.8721957e-001
 -2.9035920e-001
 -2.7663947e-001
 -2.7459203e-001
 -2.9229772e-001
 -2.9217491e-001
 -2.5523620e-001
 -2.6382587e-001
 -2.7502835e-001
 -2.6312151e-001
 -2.6307983e-001
 -2.7395733e-001
 -2.7270262e-001
 -2.3922000e-001
 -2.4953054e-001
 -2.6162799e-001
 -2.4032102e-001
 -2.4227921e-001
 -2.3892148e-001
 -1.9696029e-001
 -1.9630504e-001
 -2.1849271e-001
 -2.0716259e-001
 -1.9889418e-001
 -1.9564447e-001
 -1.8486021e-001
 -1.7690210e-001
 -1.7112623e-001
 -1.9306382e-001
 -1.5573967e-001
 -1.4307165e-001
 -1.6901969e-001
 -1.4995790e-001
 -1.2906734e-001
 -1.5282029e-001
 -1.5521592e-001
 -1.5805768e-001
 -1.5306898e-001
 -1.4637816e-001
 -1.4805161e-001
 -1.4742493e-001
 -1.7214778e-001
 -1.7498146e-001
 -1.7585308e-001
 -2.0678385e-001
 -2.1479487e-001
 -2.0242506e-001
 -2.1588059e-001
 -2.3946655e-001
 -2.4564722e-001
 -2.5288832e-001
 -2.5957396e-001
 -2.5668411e-001
 -2.4414575e-001
 -2.4498737e-001
 -2.6737195e-001
 -2.5909417e-001
 -2.4970707e-001
 -2.5376783e-001
 -2.5419751e-001
 -2.4597991e-001
 -2.6916590e-001
 -2.6236407e-001
 -2.5314800e-001
 -2.7080331e-001
 -2.7489777e-001
 -2.6854068e-001
 -2.7231963e-001
 -2.9145369e-001
 -2.6243052e-001
 -2.8204580e-001
 -2.9436515e-001
 -2.7206813e-001
 -2.7594817e-001
 -2.9697270e-001
 -3.1526871e-001
 -2.9155397e-001
 -2.9696465e-001
 -3.1672473e-001
 -3.0771000e-001
 -3.2157836e-001
 -3.5608064e-001
 -3.3595177e-001
 -3.1553682e-001
 -3.4826246e-001
 -3.3797561e-001
 -3.2521034e-001
 -3.3514394e-001
 -3.5448016e-001
 -3.4433785e-001
 -3.3192689e-001
 -3.6990097e-001
 -3.5080577e-001
 -3.0310469e-001
 -3.2705807e-001
 -3.2865380e-001
 -2.9738630e-001
 -3.0121120e-001
 -3.1784189e-001
 -3.1197203e-001
 -3.1873393e-001
 -3.2553370e-001
 -3.0813587e-001
 -2.9670464e-001
 -3.0711990e-001
 -3.1846397e-001
 -3.1027673e-001
 -3.0596981e-001
 -3.0150034e-001
 -2.7800926e-001
 -2.9462883e-001
 -3.3934034e-001
 -3.1942972e-001
 -2.6024905e-001
 -2.7797227e-001
 -2.8981060e-001
 -2.8039421e-001
 -2.9199215e-001
 -3.0665784e-001
 -2.8728368e-001
 -2.8226352e-001
 -3.0648705e-001
 -2.8912206e-001
 -2.5211585e-001
 -2.4529249e-001
 -2.3102508e-001
 -2.1437199e-001
 -2.0262152e-001
 -1.7489124e-001
 -1.3460125e-001
 -1.1179901e-001
 -9.7945371e-002
 -6.6580995e-002
 -5.6855461e-002
 -6.0732166e-002
 -6.2395276e-002
 -5.7205583e-002
 -8.7262241e-002
 -1.7088797e-001
 -2.4344530e-001
 -3.1801893e-001
 -3.6128187e-001
 -3.4698627e-001
 -3.1524858e-001
 -3.3049213e-001
 -3.4676835e-001
 -3.3934929e-001
 -3.6212216e-001
 -3.5746115e-001
 -3.2250012e-001
 -3.2813908e-001
 -3.6541093e-001
 -3.4496699e-001
 -3.3488443e-001
 -3.4766219e-001
 -3.5876706e-001
 -3.3460061e-001
 -3.2832376e-001
 -3.3804068e-001
 -3.3752554e-001
 -3.2294281e-001
 -3.7533348e-001
 -3.7444065e-001
 -3.1585695e-001
 -2.9488200e-001
 -3.0168069e-001
 -4.3541845e-001
 -5.2325019e-001
 -5.2090328e-001
 -5.2757499e-001
 -6.0003689e-001
 -6.8799069e-001
 -7.2320974e-001
 -7.9680200e-001
 -8.9418116e-001
 -9.2263806e-001
 -8.8326380e-001
 -8.5484420e-001
 -7.9931098e-001
 -6.3121388e-001
 -5.1903270e-001
 -4.5102029e-001
 -3.6669123e-001
 -3.0703422e-001
 -2.9618488e-001
 -2.9840230e-001
 -2.7660012e-001
 -2.8487864e-001
 -2.7349914e-001
 -2.4194850e-001
 -2.5816947e-001
 -2.9617520e-001
 -2.4224201e-001
 -2.0805546e-001
 -2.2816344e-001
 -2.5267080e-001
 -2.4579159e-001
 -2.4452524e-001
 -2.4650074e-001
 -2.3165511e-001
 -2.2362707e-001
 -2.2377874e-001
 -1.9973791e-001
 -1.8624965e-001
 -1.8487849e-001
 -2.1272557e-001
 -1.9461416e-001
 -1.7356694e-001
 -1.9301094e-001
 -1.7101494e-001
 -1.4984395e-001
 -1.6231139e-001
 -1.3960377e-001
 -1.4494563e-001
 -1.8158721e-001
 -1.5046971e-001
 -9.7048902e-002
 -1.2242299e-001
 -1.2153531e-001
 -5.3441941e-002
 -6.0472805e-002
 -1.1658015e-001
 -9.2377109e-002
 -7.2491844e-002
 -9.8484578e-002
 -1.3262208e-001
 -9.8015188e-002
 -1.3209295e-001
 -1.1229650e-001
 -1.0461160e-001
 -1.5569719e-001
 -1.7672267e-001
 -1.7468307e-001
 -1.8161834e-001
 -2.4151768e-001
 -1.9376198e-001
 -1.5185579e-001
 -2.0444673e-001
 -2.0148929e-001
 -1.6188577e-001
 -1.6716153e-001
 -2.2080336e-001
 -2.0529410e-001
 -2.0192905e-001
 -1.9816471e-001
 -2.0892220e-001
 -2.1411272e-001
 -2.1502653e-001
 -2.0214515e-001
 -1.6192375e-001
 -1.7264455e-001
 -2.2950700e-001
 -2.2705041e-001
 -2.0741618e-001
 -2.2226906e-001
 -2.2476063e-001
 -2.2367421e-001
 -2.4123644e-001
 -2.4110569e-001
 -2.4672630e-001
 -2.6175758e-001
 -2.8831829e-001
 -2.4080065e-001
 -2.6621985e-001
 -3.0308372e-001
 -3.0882666e-001
 -3.5045334e-001
 -3.3720487e-001
 -4.0346938e-001
 -3.0845119e-001
 -2.5759217e-001
 -3.0645094e-001
 -2.4605926e-001
 -2.3813358e-001
 -2.8513352e-001
 -2.2811500e-001
 -1.9657842e-001
 -2.4082100e-001
 -2.3222416e-001
 -2.2685368e-001
 -2.3681446e-001
 -2.5964964e-001
 -2.3162247e-001
 -2.1852913e-001
 -2.4762733e-001
 -2.5316695e-001
 -2.2431893e-001
 -2.4102280e-001
 -2.4480394e-001
 -2.2982971e-001
 -2.3012661e-001
 -2.5614084e-001
 -2.3462730e-001
 -2.1562317e-001
 -2.5795343e-001
 -2.6691546e-001
 -2.3282714e-001
 -2.2977406e-001
 -2.6418486e-001
 -2.5978043e-001
 -2.6553590e-001
 -2.3184201e-001
 -2.4307702e-001
 -2.9826850e-001
 -2.4649885e-001
 -1.1655874e-001
 -1.3523848e-001
 -1.4457047e-001
 -1.4646814e-001
 -1.5660860e-001
 -1.0544378e-001
 -9.0103182e-002
 -6.8542897e-002
 -3.7730940e-002
 -4.1947263e-002
 -1.1564429e-002
 -5.0862429e-003
 -4.9309991e-003
  8.6900881e-003
  1.0492381e-002
 -3.8574229e-002
 -1.2832001e-001
 -1.9717168e-001
 -2.6935080e-001
 -2.8412164e-001
 -2.3501266e-001
 -2.4038276e-001
 -3.1193813e-001
 -3.1499086e-001
 -2.5412041e-001
 -2.7459298e-001
 -3.5955149e-001
 -3.9692342e-001
 -3.1953979e-001
 -2.6142200e-001
 -2.8747131e-001
 -3.0681777e-001
 -2.9541285e-001
 -2.0781812e-001
 -2.4090001e-001
 -2.5884194e-001
 -2.9673460e-001
 -2.9392095e-001
 -2.5164881e-001
 -3.3750601e-001
 -4.2419481e-001
 -3.6612811e-001
 -3.9598332e-001
 -4.4451214e-001
 -5.3446593e-001
 -5.8335272e-001
 -5.8704938e-001
 -6.2910710e-001
 -6.9280417e-001
 -7.3313654e-001
 -7.5208748e-001
 -8.3941698e-001
 -9.4207403e-001
 -9.2700571e-001
 -7.9501686e-001
 -7.2369870e-001
 -6.3919850e-001
 -5.0874256e-001
 -4.2563412e-001
 -2.8041711e-001
 -2.0936974e-001
 -1.9981978e-001
 -1.9539631e-001
 -2.2391095e-001
 -1.8842046e-001
 -1.9218590e-001
 -2.3507134e-001
 -2.1104049e-001
 -1.8269281e-001
 -1.5938679e-001
 -1.5110877e-001
 -2.1991637e-001
 -2.4700331e-001
 -1.4078842e-001
 -6.7338635e-002
 -1.0080621e-001
 -1.4691045e-001
 -1.5066336e-001
 -1.3678737e-001
 -1.3034818e-001
 -1.2458542e-001
 -1.1101700e-001
 -1.1222952e-001
 -1.2586231e-001
 -8.4075156e-002
 -5.8807890e-002
 -6.2929184e-002
 -7.9410021e-002
 -7.1053917e-002
 -6.6091067e-002
 -6.3770517e-002
 -7.6624870e-002
 -4.3785141e-002
 -2.1177774e-002
 -5.3689089e-002
 -2.2074262e-002
 -1.5692373e-002
  3.9827026e-004
 -9.3677693e-003
 -1.0748135e-002
 -1.1591537e-002
 -1.4611760e-002
 -5.8645725e-002
 -8.8990093e-002
 -7.6635754e-002
 -3.1681793e-002
 -7.4787485e-002
 -9.5611891e-002
 -6.7967009e-002
 -9.7886350e-002
 -1.2990446e-001
 -1.2297977e-001
 -1.5532088e-001
 -1.6556168e-001
 -1.5978043e-001
 -1.6163510e-001
 -1.7839013e-001
 -1.7729632e-001
 -1.8209429e-001
 -1.9864917e-001
 -2.1258428e-001
 -2.0598929e-001
 -2.0461956e-001
 -2.1486769e-001
 -2.2373915e-001
 -2.5022709e-001
 -2.5157458e-001
 -2.4793441e-001
 -2.4544519e-001
 -2.1040983e-001
 -2.2352885e-001
 -2.2436103e-001
 -2.4091701e-001
 -2.6788168e-001
 -2.4724510e-001
 -2.5032657e-001
 -2.8212822e-001
 -2.8683689e-001
 -2.9308514e-001
 -3.1329859e-001
 -3.1214221e-001
 -3.0363991e-001
 -3.3401264e-001
 -3.5071045e-001
 -3.2798920e-001
 -3.2553529e-001
 -3.6353665e-001
 -3.6885792e-001
 -3.4251882e-001
 -3.5677151e-001
 -3.7263215e-001
 -3.5553436e-001
 -3.6249603e-001
 -3.4523799e-001
 -3.8251581e-001
 -4.0238745e-001
 -3.2782230e-001
 -3.2972693e-001
 -3.6621032e-001
 -3.6998793e-001
 -3.6996642e-001
 -3.6703515e-001
 -3.7546984e-001
 -3.6701628e-001
 -3.4283959e-001
 -3.2985543e-001
 -3.5821393e-001
 -3.5758411e-001
 -3.4048577e-001
 -3.8192550e-001
 -3.7879539e-001
 -3.4888596e-001
 -3.5229162e-001
 -3.5566841e-001
 -3.4467999e-001
 -3.6697895e-001
 -3.6221823e-001
 -3.6011799e-001
 -3.8027723e-001
 -3.6306922e-001
 -3.4913278e-001
 -3.5750794e-001
 -3.7372196e-001
 -3.6487775e-001
 -3.4437819e-001
 -3.5154353e-001
 -3.6733584e-001
 -3.1208962e-001
 -3.0910441e-001
 -3.4056106e-001
 -2.8241380e-001
 -2.5935164e-001
 -2.8425533e-001
 -2.9143090e-001
 -2.6264640e-001
 -1.6933911e-001
 -1.5380401e-001
 -1.4231491e-001
 -1.2184557e-001
 -1.3147792e-001
 -1.2137517e-001
 -1.0171563e-001
 -1.2664997e-001
 -1.9216885e-001
 -2.1722231e-001
 -2.9201390e-001
 -3.8929949e-001
 -4.0667968e-001
 -3.7963400e-001
 -3.8984915e-001
 -3.7995031e-001
 -3.6581006e-001
 -3.9746922e-001
 -3.8226255e-001
 -3.6800398e-001
 -3.7029022e-001
 -3.8746073e-001
 -3.9102118e-001
 -3.5954305e-001
 -3.8756727e-001
 -4.0115112e-001
 -3.6673939e-001
 -3.5738077e-001
 -3.8723722e-001
 -3.5689192e-001
 -3.5724487e-001
 -4.4097675e-001
 -4.2128112e-001
 -3.8344991e-001
 -4.0551256e-001
 -4.8160912e-001
 -6.0981326e-001
 -6.4216714e-001
 -6.5219116e-001
 -6.9134339e-001
 -7.7783774e-001
 -8.4974554e-001
 -8.4902790e-001
 -9.2522477e-001
 -9.9686548e-001
 -9.4695178e-001
 -8.5476961e-001
 -8.1593089e-001
 -6.9671438e-001
 -5.9655641e-001
 -5.0230799e-001
 -3.9374626e-001
 -3.4531352e-001
 -3.3097041e-001
 -3.3703179e-001
 -3.1384347e-001
 -2.8120474e-001
 -3.0441901e-001
 -3.2139739e-001
 -2.7776974e-001
 -2.8591797e-001
 -3.0924270e-001
 -3.0194040e-001
 -2.7405858e-001
 -2.7471271e-001
 -2.7978129e-001
 -2.7800322e-001
 -3.0062326e-001
 -2.9772155e-001
 -2.3455240e-001
 -2.2779955e-001
 -2.6106683e-001
 -2.4065074e-001
 -2.2305844e-001
 -2.1991621e-001
 -2.2057206e-001
 -2.0220288e-001
 -1.9980316e-001
 -2.0583767e-001
 -1.9923663e-001
 -1.8983107e-001
 -2.0157065e-001
 -1.6748848e-001
 -1.2666300e-001
 -1.4859303e-001
 -1.4347388e-001
 -1.3112092e-001
 -1.4547125e-001
 -1.5419029e-001
 -1.1451932e-001
 -1.0493272e-001
 -1.3302517e-001
 -1.2755326e-001
 -1.1686817e-001
 -1.3650368e-001
 -1.4415781e-001
 -1.3486081e-001
 -1.7180743e-001
 -1.5059518e-001
 -1.3731228e-001
 -1.8178704e-001
 -2.0582848e-001
 -1.9114499e-001
 -2.0091678e-001
 -2.2973186e-001
 -2.4158630e-001
 -2.4438192e-001
 -2.5635390e-001
 -2.5628345e-001
 -2.2834322e-001
 -2.5073903e-001
 -2.7297513e-001
 -2.5994308e-001
 -2.8272180e-001
 -3.1314384e-001
 -2.4757431e-001
 -2.2941167e-001
 -2.8333352e-001
 -3.0788394e-001
 -2.7208654e-001
 -2.4480856e-001
 -2.7369104e-001
 -2.8356899e-001
 -2.7556587e-001
 -2.8775717e-001
 -2.9965103e-001
 -2.7302390e-001
 -2.9080570e-001
 -3.1464082e-001
 -2.8180062e-001
 -2.9520833e-001
 -3.2197570e-001
 -2.9461090e-001
 -2.9638928e-001
 -3.2597280e-001
 -3.1014237e-001
 -3.0564592e-001
 -3.3493109e-001
 -3.4550919e-001
 -3.2278486e-001
 -3.3310708e-001
 -3.5030937e-001
 -3.4668739e-001
 -3.4392213e-001
 -3.7623684e-001
 -3.7184024e-001
 -3.3091984e-001
 -3.3918430e-001
 -3.7564466e-001
 -3.8119234e-001
 -3.6773918e-001
 -3.5742497e-001
 -3.4233152e-001
 -3.3789662e-001
 -3.6319604e-001
 -3.5115417e-001
 -3.5162682e-001
 -3.7396488e-001
 -3.8070292e-001
 -3.3881924e-001
 -3.1896230e-001
 -3.3791245e-001
 -3.3683455e-001
 -3.2714050e-001
 -3.2233381e-001
 -3.3008735e-001
 -3.1894229e-001
 -3.2752965e-001
 -3.2985614e-001
 -3.1146182e-001
 -3.0795113e-001
 -3.2383864e-001
 -3.1235774e-001
 -3.0176005e-001
 -3.1066856e-001
 -3.0729808e-001
 -2.8669478e-001
 -2.9400416e-001
 -3.1771839e-001
 -2.9775732e-001
 -3.0104079e-001
 -3.1437437e-001
 -3.0943150e-001
 -2.9085440e-001
 -3.1426604e-001
 -3.0131760e-001
 -3.0036654e-001
 -2.9707072e-001
 -3.1913277e-001
 -2.7993451e-001
 -2.1164138e-001
 -2.2126052e-001
 -2.0929060e-001
 -1.9361527e-001
 -1.7056693e-001
 -1.3178613e-001
 -1.0469827e-001
 -8.9226525e-002
 -9.9460223e-002
 -9.0895516e-002
 -7.3505395e-002
 -6.3123208e-002
 -4.9938492e-002
 -8.8244840e-002
 -1.7676652e-001
 -2.2418099e-001
 -2.8215034e-001
 -3.3606503e-001
 -3.4542235e-001
 -3.3410904e-001
 -3.4521750e-001
 -3.6778981e-001
 -3.6405607e-001
 -3.0615692e-001
 -3.1900095e-001
 -3.4747059e-001
 -3.3536580e-001
 -3.5122662e-001
 -3.5146526e-001
 -3.4365338e-001
 -3.5212480e-001
 -3.6423091e-001
 -3.4253454e-001
 -3.3717549e-001
 -3.3832149e-001
 -3.4653036e-001
 -3.5390125e-001
 -3.5017939e-001
 -3.8410548e-001
 -3.7579234e-001
 -4.0457615e-001
 -4.2312856e-001
 -4.1268988e-001
 -3.8316154e-001
 -4.6884144e-001
 -5.9916668e-001
 -5.8515457e-001
 -5.9377246e-001
 -6.5636894e-001
 -7.0593014e-001
 -7.6941580e-001
 -7.9251253e-001
 -8.3676698e-001
 -9.3899075e-001
 -9.7169403e-001
 -9.4431965e-001
 -8.6861115e-001
 -8.1893243e-001
 -7.3017008e-001
 -5.8480581e-001
 -5.1025475e-001
 -4.3160497e-001
 -3.3569648e-001
 -3.0412004e-001
 -2.8206933e-001
 -2.8482606e-001
 -2.6001401e-001
 -2.5065910e-001
 -2.6135816e-001
 -2.3339450e-001
 -2.4096657e-001
 -2.6815769e-001
 -2.5747977e-001
 -2.2735545e-001
 -2.4511579e-001
 -2.4030455e-001
 -2.1899494e-001
 -2.2370763e-001
 -2.2436146e-001
 -2.1142459e-001
 -2.0842553e-001
 -2.1660965e-001
 -2.2142301e-001
 -2.1371042e-001
 -2.2557228e-001
 -2.0824998e-001
 -1.9665305e-001
 -1.9264565e-001
 -1.7088764e-001
 -1.8516676e-001
 -1.8297239e-001
 -1.8428575e-001
 -1.6497404e-001
 -1.3286679e-001
 -1.3025382e-001
 -1.3223576e-001
 -1.3255285e-001
 -1.1972297e-001
 -1.1677094e-001
 -1.2260298e-001
 -1.1294827e-001
 -1.0822379e-001
 -7.4630177e-002
 -7.9806518e-002
 -1.0828038e-001
 -1.1577217e-001
 -1.1832865e-001
 -1.2054385e-001
 -1.2752305e-001
 -1.3141642e-001
 -1.4446570e-001
 -1.5490381e-001
 -1.4232973e-001
 -1.7386360e-001
 -2.1457621e-001
 -2.1088622e-001
 -2.2988456e-001
 -2.4175545e-001
 -2.4772432e-001
 -2.4452377e-001
 -2.3415984e-001
 -2.7526909e-001
 -2.6455834e-001
 -2.7470003e-001
 -2.7976513e-001
 -2.5828728e-001
 -2.6829917e-001
 -2.8389807e-001
 -3.0003869e-001
 -3.1153684e-001
 -2.9818538e-001
 -3.0220064e-001
 -2.8594075e-001
 -2.7885008e-001
 -3.0319630e-001
 -3.0648749e-001
 -2.9082302e-001
 -3.3819087e-001
 -3.4453958e-001
 -3.1465907e-001
 -3.2875113e-001
 -3.5015770e-001
 -3.5585762e-001
 -3.1668840e-001
 -3.4757597e-001
 -3.4645745e-001
 -3.1117266e-001
 -3.3071908e-001
 -3.7083397e-001
 -3.4807525e-001
 -3.5445550e-001
 -4.0084083e-001
 -3.8991117e-001
 -3.8056509e-001
 -3.9908005e-001
 -4.0257537e-001
 -4.0530798e-001
 -4.0102907e-001
 -3.9044789e-001
 -3.8816085e-001
 -3.9825863e-001
 -4.1280192e-001
 -3.8606091e-001
 -3.9381354e-001
 -4.1482764e-001
 -3.9939478e-001
 -3.9672935e-001
 -3.9658122e-001
 -4.1020428e-001
 -3.9446811e-001
 -3.7277829e-001
 -3.8968201e-001
 -3.9183179e-001
 -3.7365256e-001
 -3.9570284e-001
 -3.7527896e-001
 -3.8033204e-001
 -4.0149091e-001
 -3.5688972e-001
 -3.2601180e-001
 -3.6604717e-001
 -4.0070046e-001
 -3.5437815e-001
 -3.5022100e-001
 -3.6281603e-001
 -3.4611436e-001
 -3.4549805e-001
 -3.6544359e-001
 -3.5891823e-001
 -3.4187425e-001
 -3.4280074e-001
 -3.6496039e-001
 -3.7566579e-001
 -3.3199970e-001
 -3.3736400e-001
 -3.5866866e-001
 -3.4351277e-001
 -3.1627772e-001
 -3.4002186e-001
 -3.4922591e-001
 -3.5003831e-001
 -3.5796316e-001
 -3.4782514e-001
 -3.3614936e-001
 -3.5097412e-001
 -3.9063514e-001
 -3.3618506e-001
 -2.6230054e-001
 -2.8317608e-001
 -2.6613016e-001
 -2.6313076e-001
 -2.7545064e-001
 -2.3056403e-001
 -1.9826777e-001
 -1.8293071e-001
 -1.4263269e-001
 -1.1118347e-001
 -1.4557637e-001
 -1.3295994e-001
 -8.9589377e-002
 -7.1915083e-002
 -1.3875877e-001
 -2.4330851e-001
 -2.7207102e-001
 -3.3386473e-001
 -3.8129514e-001
 -3.6893004e-001
 -3.7333810e-001
 -3.8926527e-001
 -3.7041291e-001
 -3.9108908e-001
 -3.9688548e-001
 -3.8675603e-001
 -3.8202284e-001
 -3.9950919e-001
 -3.8375975e-001
 -3.6461722e-001
 -3.8353764e-001
 -3.9985607e-001
 -3.9574379e-001
 -3.7218169e-001
 -3.9520638e-001
 -3.9703956e-001
 -3.8473923e-001
 -3.9142601e-001
 -3.8561700e-001
 -3.7978566e-001
 -4.3912675e-001
 -4.2719458e-001
 -3.8540200e-001
 -3.7657147e-001
 -4.6264657e-001
 -5.8790964e-001
 -6.3342037e-001
 -6.5224513e-001
 -6.5495018e-001
 -7.3051623e-001
 -8.1631536e-001
 -8.5523054e-001
 -9.0440636e-001
 -9.9252561e-001
 -1.0219807e+000
 -9.9103113e-001
 -9.0276394e-001
 -8.6267804e-001
 -7.2684055e-001
 -5.8295098e-001
 -5.3025843e-001
 -4.7459848e-001
 -3.6435729e-001
 -3.1133229e-001
 -3.1647177e-001
 -3.0175633e-001
 -2.8148166e-001
 -2.9443190e-001
 -2.9087164e-001
 -2.7525350e-001
 -2.8176546e-001
 -2.9537059e-001
 -2.6719429e-001
 -2.6465222e-001
 -2.7853232e-001
 -2.8711026e-001
 -2.5924009e-001
 -2.5286809e-001
 -2.7458326e-001
 -2.5403811e-001
 -2.5728130e-001
 -2.5530891e-001
 -2.4775288e-001
 -2.3604238e-001
 -2.3230216e-001
 -2.2062770e-001
 -2.0530196e-001
 -2.2896281e-001
 -2.3203763e-001
 -2.0021279e-001
 -1.8001824e-001
 -1.9034407e-001
 -1.9373771e-001
 -1.6669595e-001
 -1.6721676e-001
 -1.6233210e-001
 -1.4845822e-001
 -1.5767394e-001
 -1.5872921e-001
 -1.4775090e-001
 -1.5145984e-001
 -1.3830979e-001
 -1.4643185e-001
 -1.4677030e-001
 -1.6044322e-001
 -1.3476695e-001
 -1.2270731e-001
 -1.4108164e-001
 -1.4559756e-001
 -1.5613063e-001
 -1.7296034e-001
 -2.1095989e-001
 -2.1361280e-001
 -2.0942936e-001
 -2.3128359e-001
 -2.3811372e-001
 -2.4546985e-001
 -2.6949494e-001
 -2.7593874e-001
 -2.5268054e-001
 -2.7682289e-001
 -2.8612655e-001
 -2.7229920e-001
 -2.6970928e-001
 -2.7512704e-001
 -2.7797624e-001
 -2.7019983e-001
 -2.9586045e-001
 -2.7874519e-001
 -2.6741765e-001
 -2.9347239e-001
 -3.0148572e-001
 -2.8125376e-001
 -2.9079818e-001
 -3.1535793e-001
 -3.0210213e-001
 -2.9185956e-001
 -3.0596300e-001
 -3.1395444e-001
 -3.0104482e-001
 -3.0674148e-001
 -3.3507079e-001
 -3.2520132e-001
 -3.1720624e-001
 -3.4748890e-001
 -3.2812626e-001
 -3.2248479e-001
 -3.4057613e-001
 -3.5963278e-001
 -3.4490742e-001
 -3.5565848e-001
 -3.7809045e-001
 -3.6634471e-001
 -3.7251124e-001
 -4.0195550e-001
 -3.9361218e-001
 -3.6880969e-001
 -3.9649224e-001
 -4.0732639e-001
 -3.8322370e-001
 -3.7051218e-001
 -4.0350096e-001
 -3.9176072e-001
 -3.6349862e-001
 -3.8217623e-001
 -3.9918116e-001
 -3.7860564e-001
 -3.8673586e-001
 -3.5034821e-001
 -3.5699901e-001
 -3.8949621e-001
 -3.7136392e-001
 -3.5911817e-001
 -3.5758349e-001
 -3.7842732e-001
 -3.7839172e-001
 -3.7249830e-001
 -3.4658752e-001
 -3.4825244e-001
 -3.5155732e-001
 -3.5004211e-001
 -3.5110247e-001
 -3.5514001e-001
 -3.6427912e-001
 -3.6313533e-001
 -3.5256422e-001
 -3.4924847e-001
 -3.6690142e-001
 -3.6015977e-001
 -3.5883838e-001
 -3.6342328e-001
 -3.6158650e-001
 -3.4569408e-001
 -3.3482100e-001
 -3.4237802e-001
 -3.1985727e-001
 -3.0982908e-001
 -3.1401982e-001
 -3.0372450e-001
 -2.7565801e-001
 -2.3302908e-001
 -1.7499003e-001
 -1.8114118e-001
 -1.5387087e-001
 -1.5370464e-001
 -1.4804767e-001
 -1.0562497e-001
 -1.1954227e-001
 -1.6114495e-001
 -2.1070018e-001
 -2.7571578e-001
 -3.5215054e-001
 -4.0050875e-001
 -4.1131504e-001
 -4.1835783e-001
 -4.1162623e-001
 -4.0358849e-001
 -4.1778675e-001
 -4.4170075e-001
 -4.1232989e-001
 -4.0084250e-001
 -4.3405105e-001
 -4.1486481e-001
 -4.1382032e-001
 -4.0536793e-001
 -3.9771689e-001
 -4.1033423e-001
 -4.3600242e-001
 -4.2866309e-001
 -4.1883434e-001
 -4.0611537e-001
 -4.1620141e-001
 -4.1259953e-001
 -4.2486067e-001
 -4.7311284e-001
 -4.2555821e-001
 -3.8332724e-001
 -4.0765930e-001
 -4.4268315e-001
 -6.0082714e-001
 -6.6197469e-001
 -6.7344025e-001
 -6.9073206e-001
 -7.4613842e-001
 -8.4900079e-001
 -8.9533927e-001
 -9.4141285e-001
 -1.0433417e+000
 -1.0663008e+000
 -1.0019355e+000
 -9.3084871e-001
 -8.9477033e-001
 -7.5115388e-001
 -6.2095171e-001
 -5.7359765e-001
 -4.5483244e-001
 -3.8218217e-001
 -3.8504784e-001
 -3.7277316e-001
 -3.3941068e-001
 -3.3623845e-001
 -3.5078379e-001
 -3.2718461e-001
 -3.3013939e-001
 -3.3527432e-001
 -3.0920797e-001
 -2.9335957e-001
 -3.0993990e-001
 -3.2582792e-001
 -3.1357713e-001
 -2.9898385e-001
 -3.0527076e-001
 -2.9420930e-001
 -2.8188177e-001
 -2.8846309e-001
 -2.6738314e-001
 -2.5279630e-001
 -2.7668882e-001
 -2.5996444e-001
 -2.6502461e-001
 -2.5900633e-001
 -2.3795866e-001
 -2.3637762e-001
 -2.0974216e-001
 -2.1989598e-001
 -2.1783298e-001
 -2.0323969e-001
 -2.0711115e-001
 -2.0479894e-001
 -1.9616785e-001
 -1.8675570e-001
 -2.1018577e-001
 -1.9752513e-001
 -1.5517213e-001
 -1.8276580e-001
 -1.6846099e-001
 -1.4727027e-001
 -1.7259984e-001
 -1.8530018e-001
 -1.8700487e-001
 -2.2053922e-001
 -2.3503405e-001
 -2.2752471e-001
 -2.4031345e-001
 -2.6835094e-001
 -2.6765846e-001
 -2.7696836e-001
 -3.0207005e-001
 -3.0634240e-001
 -2.9878773e-001
 -3.2593609e-001
 -3.5549182e-001
 -3.2236679e-001
 -3.2615520e-001
 -3.3946652e-001
 -3.3720002e-001
 -3.3510009e-001
 -3.5268785e-001
 -3.6918001e-001
 -3.3894322e-001
 -3.3911369e-001
 -3.5994977e-001
 -3.5167009e-001
 -3.4806869e-001
 -3.5987315e-001
 -3.5597572e-001
 -3.4918492e-001
 -3.6075862e-001
 -3.7075437e-001
 -3.5511405e-001
 -3.5299562e-001
 -3.6645472e-001
 -3.4534229e-001
 -3.5163190e-001
 -3.8736455e-001
 -3.7737667e-001
 -3.6926792e-001
 -3.9957209e-001
 -4.0872454e-001
 -3.9936269e-001
 -4.0586619e-001
 -4.1914186e-001
 -3.9357127e-001
 -3.9489114e-001
 -4.1267471e-001
 -4.1442237e-001
 -4.0447342e-001
 -4.0505141e-001
 -4.1672696e-001
 -4.1784041e-001
 -4.2812017e-001
 -4.3075444e-001
 -4.2395551e-001
 -4.0203700e-001
 -4.0947578e-001
 -4.4185871e-001
 -4.2098279e-001
 -4.2682303e-001
 -4.2472012e-001
 -4.2142408e-001
 -4.3014234e-001
 -4.0851732e-001
 -3.9792690e-001
 -4.0818648e-001
 -3.9225012e-001
 -3.7203885e-001
 -3.8063214e-001
 -4.0633063e-001
 -4.1043310e-001
 -3.9069382e-001
 -4.0862833e-001
 -4.0450898e-001
 -3.7936221e-001
 -3.7716134e-001
 -3.9087612e-001
 -3.8634513e-001
 -3.9631009e-001
 -4.0941344e-001
 -4.0225236e-001
 -3.9620523e-001
 -4.0217232e-001
 -3.8198338e-001
 -3.5952617e-001
 -3.7268737e-001
 -3.9507313e-001
 -3.7680014e-001
 -3.7047952e-001
 -3.9341650e-001
 -3.8234623e-001
 -3.6454925e-001
 -3.6720496e-001
 -3.7223318e-001
 -3.0343582e-001
 -2.9233130e-001
 -3.0923105e-001
 -2.6429457e-001
 -2.2790963e-001
 -2.0666138e-001
 -2.0427543e-001
 -1.5168100e-001
 -1.3721020e-001
 -1.6723036e-001
 -1.3927931e-001
 -1.2274991e-001
 -1.2608966e-001
 -1.7083391e-001
 -2.5483356e-001
 -3.2697144e-001
 -4.1289721e-001
 -4.1995126e-001
 -4.0867766e-001
 -4.0775418e-001
 -3.9463719e-001
 -4.0779761e-001
 -4.1683573e-001
 -4.1770501e-001
 -4.3608117e-001
 -4.2760243e-001
 -4.0886488e-001
 -4.0343609e-001
 -4.1417569e-001
 -4.1224938e-001
 -3.9682585e-001
 -4.0491972e-001
 -4.1668398e-001
 -4.1332022e-001
 -4.0156538e-001
 -4.1329466e-001
 -4.0576904e-001
 -3.8138884e-001
 -4.0979558e-001
 -4.3441719e-001
 -3.7269145e-001
 -3.6600965e-001
 -3.8422993e-001
 -4.8262960e-001
 -6.0269987e-001
 -6.2785862e-001
 -6.3584006e-001
 -6.7910100e-001
 -7.5622846e-001
 -8.0369210e-001
 -8.4000673e-001
 -9.0238466e-001
 -9.5841069e-001
 -9.8909795e-001
 -9.5804269e-001
 -8.8767812e-001
 -8.3944865e-001
 -6.8941558e-001
 -6.0207333e-001
 -5.5517285e-001
 -4.6533764e-001
 -3.6305603e-001
 -3.2863594e-001
 -3.1077667e-001
 -3.0234649e-001
 -3.2476805e-001
 -3.3341700e-001
 -2.8924762e-001
 -2.7808578e-001
 -2.9667013e-001
 -2.7835023e-001
 -2.6246973e-001
 -2.6887336e-001
 -2.6865455e-001
 -2.7578369e-001
 -2.6830414e-001
 -2.6503771e-001
 -2.5357666e-001
 -2.6137433e-001
 -2.6417892e-001
 -2.4840533e-001
 -2.5866281e-001
 -2.4391376e-001
 -2.1669959e-001
 -2.1796997e-001
 -2.2236898e-001
 -2.0211570e-001
 -2.1078845e-001
 -2.0728450e-001
 -2.0629174e-001
 -1.8334952e-001
 -1.7146664e-001
 -1.7963899e-001
 -1.6373218e-001
 -1.5429528e-001
 -1.5819537e-001
 -1.5286332e-001
 -1.4551439e-001
 -1.5129189e-001
 -1.6917504e-001
 -1.3519733e-001
 -1.3815787e-001
 -1.6053554e-001
 -1.5868164e-001
 -1.7303832e-001
 -1.9011356e-001
 -1.9621169e-001
 -1.9993521e-001
 -2.1023709e-001
 -2.2611354e-001
 -2.2024071e-001
 -2.2747057e-001
 -2.4862353e-001
 -2.4612759e-001
 -2.4928736e-001
 -2.7171010e-001
 -2.7232493e-001
 -2.5009176e-001
 -2.6172803e-001
 -2.7886870e-001
 -2.6119419e-001
 -2.7551626e-001
 -2.9009051e-001
 -2.6412552e-001
 -2.5861377e-001
 -2.6882881e-001
 -2.7565654e-001
 -2.5916370e-001
 -2.7435433e-001
 -2.8973781e-001
 -2.8032031e-001
 -2.7401228e-001
 -2.7738311e-001
 -2.6826593e-001
 -2.7460679e-001
 -2.9541835e-001
 -2.8849638e-001
 -2.8109273e-001
 -3.1615077e-001
 -3.1385631e-001
 -2.9648833e-001
 -3.0793256e-001
 -3.1421982e-001
 -3.2868275e-001
 -3.2184293e-001
 -3.3163907e-001
 -3.2753014e-001
 -3.0712685e-001
 -3.3266434e-001
 -3.3520929e-001
 -3.2508695e-001
 -3.3710653e-001
 -3.4890534e-001
 -3.3785033e-001
 -3.0855049e-001
 -3.3442283e-001
 -3.1837877e-001
 -3.0026784e-001
 -3.1977588e-001
 -3.2951592e-001
 -3.0240818e-001
 -3.0778223e-001
 -3.3295877e-001
 -3.1250151e-001
 -3.1176500e-001
 -3.0910935e-001
 -3.0851889e-001
 -2.9625185e-001
 -3.0487476e-001
 -3.1789041e-001
 -3.0207972e-001
 -3.0332014e-001
 -3.2503541e-001
 -3.1009725e-001
 -2.8195125e-001
 -3.0110409e-001
 -3.0231683e-001
 -2.7559265e-001
 -2.9454541e-001
 -2.9850111e-001
 -2.7319451e-001
 -2.7365773e-001
 -2.8618611e-001
 -2.7362684e-001
 -2.6007243e-001
 -2.6210966e-001
 -2.4098248e-001
 -2.0840602e-001
 -2.2056963e-001
 -2.1188352e-001
 -1.8117762e-001
 -1.4010411e-001
 -1.1763626e-001
 -8.5041664e-002
 -5.8333594e-002
 -6.6948549e-002
 -5.3264920e-002
 -1.8619324e-002
 -3.6545923e-002
 -8.8313427e-002
 -1.5784547e-001
 -2.1336333e-001
 -2.9869999e-001
 -3.1402551e-001
 -3.0186840e-001
 -3.1496200e-001
 -2.9859139e-001
 -2.9917990e-001
 -3.2099265e-001
 -3.1727387e-001
 -3.1087309e-001
 -3.1896799e-001
 -3.1681672e-001
 -2.8980806e-001
 -2.9198142e-001
 -3.1660464e-001
 -2.9538564e-001
 -2.9185782e-001
 -3.0918433e-001
 -3.1194787e-001
 -2.9319187e-001
 -3.0837377e-001
 -3.1430456e-001
 -2.8486896e-001
 -3.1055770e-001
 -3.2440475e-001
 -2.8145482e-001
 -2.5355640e-001
 -3.2769207e-001
 -4.7332138e-001
 -5.1384377e-001
 -5.1562076e-001
 -5.7607057e-001
 -6.4803047e-001
 -6.9803411e-001
 -7.9258552e-001
 -8.6203570e-001
 -8.7937394e-001
 -8.7347206e-001
 -8.0746866e-001
 -7.3935390e-001
 -6.0860896e-001
 -4.8892320e-001
 -4.1286597e-001
 -3.1493824e-001
 -2.5495715e-001
 -2.2706886e-001
 -2.0847382e-001
 -2.1717346e-001
 -2.2178684e-001
 -1.8712577e-001
 -1.8561941e-001
 -2.0395435e-001
 -1.8920080e-001
 -1.7301651e-001
 -1.7563947e-001
 -1.6850309e-001
 -1.6482313e-001
 -1.6711440e-001
 -1.8149362e-001
 -1.7482216e-001
 -1.5466179e-001
 -1.6720083e-001
 -1.5959552e-001
 -1.3824605e-001
 -1.4348179e-001
 -1.2387557e-001
 -1.0780589e-001
 -1.1921462e-001
 -1.2164947e-001
 -8.6587917e-002
 -8.7221567e-002
 -8.7888192e-002
 -5.9536243e-002
 -4.8831593e-002
 -7.2766329e-002
 -4.6881685e-002
 -4.3607589e-002
 -4.7577720e-002
 -2.9720230e-002
 -1.1047275e-002
 -1.6624042e-002
 -5.2395572e-002
 -4.5015969e-002
 -3.8825871e-002
 -7.4602498e-002
 -7.9341092e-002
 -7.0240106e-002
 -9.3129388e-002
 -1.2366114e-001
 -1.3125173e-001
 -1.4699514e-001
 -1.8292409e-001
 -1.6516319e-001
 -1.5705832e-001
 -1.7764891e-001
 -1.8031805e-001
 -1.8565386e-001
 -1.8504126e-001
 -1.8133410e-001
 -1.9083103e-001
 -1.9360040e-001
 -2.0730027e-001
 -1.9729782e-001
 -1.8001098e-001
 -1.9858198e-001
 -2.1214231e-001
 -1.9493445e-001
 -2.1761207e-001
 -2.2760040e-001
 -2.0987770e-001
 -2.1623228e-001
 -2.4064579e-001
 -2.2645000e-001
 -2.2035082e-001
 -2.3922028e-001
 -2.4613648e-001
 -2.3777297e-001
 -2.5177832e-001
 -2.3849007e-001
 -2.2962712e-001
 -2.7014056e-001
 -2.6404323e-001
 -2.4767121e-001
 -2.5864319e-001
 -3.2526492e-001
 -3.9719933e-001
 -4.2742736e-001
 -4.6087746e-001
 -4.3741617e-001
 -3.7789612e-001
 -2.7835790e-001
 -1.7817520e-001
 -7.9543884e-002
  2.0251516e-002
  8.6209754e-002
  2.3387139e-001
  1.9440905e-001
  1.3315196e-001
  2.4180198e-001
  1.7113928e-001
  2.6148088e-002
 -1.4466599e-001
 -4.4795132e-001
 -5.9780888e-001
 -4.8337288e-001
 -3.1461606e-001
 -2.8574268e-001
 -3.1099628e-001
 -3.4188256e-001
 -3.2277544e-001
 -3.1987778e-001
 -3.3871551e-001
 -3.2598647e-001
 -3.3778924e-001
 -3.4024432e-001
 -3.3942581e-001
 -3.2185454e-001
 -3.4144059e-001
 -3.5565559e-001
 -3.3756322e-001
 -3.4998907e-001
 -3.7108652e-001
 -3.6886353e-001
 -3.5547914e-001
 -3.7118003e-001
 -3.5847010e-001
 -3.5588437e-001
 -3.5953339e-001
 -3.4963335e-001
 -3.2779776e-001
 -2.9975723e-001
 -3.1371933e-001
 -2.8993499e-001
 -2.7725968e-001
 -2.6273069e-001
 -2.0376389e-001
 -1.8712845e-001
 -1.8003423e-001
 -1.7023193e-001
 -1.7024526e-001
 -1.5924283e-001
 -1.3646658e-001
 -1.1845962e-001
 -1.8890772e-001
 -2.7678849e-001
 -3.2021845e-001
 -3.7674039e-001
 -4.4379955e-001
 -4.3971534e-001
 -4.1036288e-001
 -4.1418037e-001
 -4.2313248e-001
 -4.1350306e-001
 -3.9242397e-001
 -4.0370512e-001
 -3.9268133e-001
 -3.8057122e-001
 -3.7548293e-001
 -3.6313430e-001
 -3.3918115e-001
 -3.3560660e-001
 -3.5156621e-001
 -3.3308193e-001
 -3.2056601e-001
 -3.1794988e-001
 -3.2068707e-001
 -3.2240127e-001
 -3.0730503e-001
 -3.1745143e-001
 -3.1417614e-001
 -3.1448059e-001
 -3.2562285e-001
 -3.2380260e-001
 -3.1749842e-001
 -3.3533762e-001
 -3.1832729e-001
 -2.9582466e-001
 -3.0765051e-001
 -3.1468924e-001
 -3.0554158e-001
 -3.1225892e-001
 -3.1461252e-001
 -2.8929912e-001
 -2.7629064e-001
 -2.9621286e-001
 -2.9332927e-001
 -2.7348608e-001
 -2.9190894e-001
 -2.8502550e-001
 -2.8486312e-001
 -2.5996105e-001
 -2.6797446e-001
 -2.6864235e-001
 -2.5242395e-001
 -2.7300773e-001
 -2.4692360e-001
 -2.2964494e-001
 -2.5365637e-001
 -2.5318945e-001
 -2.3197527e-001
 -2.3449603e-001
 -2.2814585e-001
 -2.2912596e-001
 -2.5870535e-001
 -2.5995498e-001
 -2.3097303e-001
 -2.0917779e-001
 -2.4112058e-001
 -2.4929029e-001
 -2.3631746e-001
 -2.2765310e-001
 -2.1993765e-001
 -2.3458989e-001
 -2.2857669e-001
 -2.4472262e-001
 -2.4266407e-001
 -2.2568926e-001
 -2.3913789e-001
 -2.3975899e-001
 -2.1863145e-001
 -2.0467693e-001
 -2.2072575e-001
 -2.0224823e-001
 -1.9239722e-001
 -2.0448065e-001
 -2.0391427e-001
 -1.9614910e-001
 -1.8963512e-001
 -2.0967419e-001
 -2.0463204e-001
 -1.9372322e-001
 -2.0550624e-001
 -1.9123435e-001
 -1.8675221e-001
 -1.8907443e-001
 -2.0251679e-001
 -1.9626999e-001
 -1.8545766e-001
 -2.0279114e-001
 -1.9671853e-001
 -2.0009879e-001
 -2.1668165e-001
 -2.0310097e-001
 -1.6228758e-001
 -1.6193744e-001
 -1.8565958e-001
 -1.6797922e-001
 -1.9490030e-001
 -1.9763221e-001
 -1.8964963e-001
 -1.8418575e-001
 -1.8592611e-001
 -1.9494775e-001
 -1.9371333e-001
 -1.9653138e-001
 -1.7429559e-001
 -1.7620004e-001
 -1.9184245e-001
 -1.9288066e-001
 -1.8416292e-001
 -1.8718258e-001
 -1.9418254e-001
 -1.8113351e-001
 -1.7500352e-001
 -1.8358742e-001
 -1.7497164e-001
 -1.6541190e-001
 -1.8772319e-001
 -2.0495072e-001
 -1.8235724e-001
 -1.8420889e-001
 -1.8638073e-001
 -1.7261293e-001
 -1.7524331e-001
 -1.7891523e-001
 -1.7793468e-001
 -1.9249143e-001
 -1.9272144e-001
 -1.9226061e-001
 -1.7276320e-001
 -1.7371052e-001
 -1.7793571e-001
 -1.6076484e-001
 -1.8355608e-001
 -1.9146472e-001
 -1.8558098e-001
 -1.6904175e-001
 -1.8516004e-001
 -1.9424596e-001
 -1.6898740e-001
 -1.6441414e-001
 -1.8691795e-001
 -1.8124643e-001
 -1.6763180e-001
 -1.8254297e-001
 -2.0048830e-001
 -1.8023708e-001
 -1.8991989e-001
 -1.8938172e-001
 -1.7272875e-001
 -1.7379764e-001
 -1.8642536e-001
 -1.6774841e-001
 -1.6310229e-001
 -1.7318377e-001
 -1.8353935e-001
 -1.7074484e-001
 -1.8275239e-001
 -1.8335474e-001
 -1.7029589e-001
 -1.7016112e-001
 -1.7088370e-001
 -1.6122281e-001
 -1.8047722e-001
 -1.9116778e-001
 -1.8148944e-001
 -1.7123919e-001
 -1.7646293e-001
 -1.7324503e-001
 -1.6040314e-001
 -1.7580761e-001
 -1.9499804e-001
 -1.4183138e-001
 -1.0947856e-001
 -1.1814214e-001
 -9.5216679e-002
 -7.5171161e-002
 -5.4398946e-002
 -2.7263922e-002
  1.4445589e-002
  2.5238415e-002
  2.5738288e-002
  4.4904755e-002
  6.6316648e-002
  6.8223507e-002
  6.5833403e-002
 -4.0436132e-003
 -1.0000808e-001
 -1.6823292e-001
 -2.0934163e-001
 -2.2595943e-001
 -2.2314521e-001
 -2.0570012e-001
 -2.1448568e-001
 -2.3363813e-001
 -2.2995513e-001
 -2.0675533e-001
 -2.3053501e-001
 -2.4270882e-001
 -2.1554209e-001
 -2.3460294e-001
 -2.4154644e-001
 -2.1550225e-001
 -2.1618796e-001
 -2.2936667e-001
 -2.2778455e-001
 -2.0922507e-001
 -2.1397943e-001
 -2.3938752e-001
 -2.1544005e-001
 -1.7736675e-001
 -1.8375067e-001
 -1.8471593e-001
 -3.1958575e-001
 -4.1752589e-001
 -4.2102901e-001
 -4.4545802e-001
 -5.2441222e-001
 -5.8512846e-001
 -6.3952664e-001
 -6.9111390e-001
 -7.4006325e-001
 -7.6421756e-001
 -7.8401368e-001
 -7.5126555e-001
 -7.2795350e-001
 -6.8338946e-001
 -5.1560160e-001
 -3.9876834e-001
 -3.5600479e-001
 -3.0164661e-001
 -2.1543907e-001
 -1.7869324e-001
 -1.3633256e-001
 -1.5000997e-001
 -1.6648175e-001
 -1.3809190e-001
 -1.2801119e-001
 -1.3357026e-001
 -1.2608702e-001
 -1.2696467e-001
 -1.2821620e-001
 -1.2099856e-001
 -1.2591991e-001
 -1.3881105e-001
 -1.3556548e-001
 -1.2737298e-001
 -1.2972245e-001
 -1.4424229e-001
 -1.1800872e-001
 -1.3062189e-001
 -1.4095963e-001
 -1.2837104e-001
 -1.2834472e-001
 -1.2107512e-001
 -9.5273791e-002
 -7.0307005e-002
 -7.2981837e-002
 -9.2446799e-002
 -7.1770256e-002
 -6.0655258e-002
 -7.5990123e-002
 -8.6464840e-002
 -7.8214687e-002
 -4.8843664e-002
 -4.9624410e-002
 -4.6172425e-002
 -4.2178735e-002
 -3.4010219e-002
 -1.8987187e-002
 -3.9127209e-002
 -5.1619086e-002
 -2.8824773e-002
 -1.9018109e-002
 -4.2723123e-002
 -5.3363463e-002
 -4.2830120e-002
 -5.5007621e-002
 -4.6596797e-002
 -3.6280253e-002
 -5.6882671e-002
 -6.4859111e-002
 -5.3905354e-002
 -5.8705252e-002
 -6.7896507e-002
 -6.8047290e-002
 -7.6561573e-002
 -9.6556529e-002
 -1.0678074e-001
 -8.5913823e-002
 -1.0452543e-001
 -1.2343516e-001
 -1.1510739e-001
 -1.0668273e-001
 -1.1586811e-001
 -1.1139822e-001
 -1.0883045e-001
 -1.2741007e-001
 -1.3400779e-001
 -1.1383400e-001
 -1.2284701e-001
 -1.2480882e-001
 -1.1841015e-001
 -1.2754686e-001
 -1.4719443e-001
 -1.4390692e-001
 -1.2125016e-001
 -1.2691808e-001
 -1.4163070e-001
 -1.1471061e-001
 -1.2982194e-001
 -1.4355343e-001
 -1.2146683e-001
 -1.4018105e-001
 -1.5463521e-001
 -1.3602634e-001
 -1.4407472e-001
 -1.6188011e-001
 -1.7235978e-001
 -1.7401460e-001
 -1.8379984e-001
 -2.0334857e-001
 -2.1632697e-001
 -2.2404981e-001
 -2.2084578e-001
 -2.0899710e-001
 -2.2215787e-001
 -2.4355368e-001
 -2.4309135e-001
 -2.1815479e-001
 -2.2087475e-001
 -2.5586907e-001
 -2.4551273e-001
 -2.4501381e-001
 -2.4872849e-001
 -2.1229819e-001
 -2.0877244e-001
 -2.1756324e-001
 -2.2931149e-001
 -2.0580644e-001
 -1.8335183e-001
 -1.7853139e-001
 -1.7525601e-001
 -1.9020331e-001
 -2.0175137e-001
 -1.9525529e-001
 -1.9725255e-001
 -1.8791734e-001
 -1.8673109e-001
 -1.8026044e-001
 -1.8124422e-001
 -1.6878775e-001
 -1.6467030e-001
 -1.7765033e-001
 -1.8301128e-001
 -1.7650684e-001
 -1.5193273e-001
 -1.7867158e-001
 -1.8268718e-001
 -1.6567679e-001
 -1.7455985e-001
 -1.7620874e-001
 -1.6849984e-001
 -1.7120753e-001
 -1.7869695e-001
 -1.8526419e-001
 -1.6994406e-001
 -1.4971226e-001
 -1.4111901e-001
 -1.4132484e-001
 -1.5637154e-001
 -1.5482947e-001
 -1.1926725e-001
 -1.1422070e-001
 -1.0499043e-001
 -8.6597844e-002
 -7.0629371e-002
 -5.7974279e-002
 -4.1951697e-002
 -3.9389780e-003
  5.0695129e-002
  5.7972419e-002
  5.4728717e-002
  4.9649825e-002
  4.5357193e-002
  3.3577706e-002
  4.4421367e-002
 -1.3118993e-002
 -8.8491543e-002
 -1.5166646e-001
 -2.2690884e-001
 -2.3267156e-001
 -1.8355862e-001
 -1.8778020e-001
 -2.0859280e-001
 -2.0279298e-001
 -1.9130947e-001
 -2.1519567e-001
 -2.0134719e-001
 -1.9347370e-001
 -2.1030615e-001
 -2.1820331e-001
 -2.0795217e-001
 -2.1038909e-001
 -2.2224812e-001
 -2.1092172e-001
 -2.1655366e-001
 -1.9937518e-001
 -1.8957899e-001
 -1.9905410e-001
 -2.0944936e-001
 -2.0448689e-001
 -2.2374865e-001
 -2.5383049e-001
 -2.1121751e-001
 -1.6554717e-001
 -1.7018194e-001
 -2.7408399e-001
 -3.9913963e-001
 -4.2589382e-001
 -4.2703377e-001
 -4.7304530e-001
 -5.3961206e-001
 -5.9677471e-001
 -6.5974705e-001
 -6.9179242e-001
 -7.4736368e-001
 -8.2054664e-001
 -8.2012484e-001
 -7.3982058e-001
 -7.0827064e-001
 -6.1173215e-001
 -4.5643459e-001
 -3.7789173e-001
 -3.2356755e-001
 -2.3405972e-001
 -1.7090628e-001
 -1.4564003e-001
 -1.3684916e-001
 -1.1506070e-001
 -1.1265904e-001
 -1.2953672e-001
 -1.2417566e-001
 -1.2107651e-001
 -1.1386269e-001
 -9.1666264e-002
 -7.8874683e-002
 -1.0020588e-001
 -1.0387363e-001
 -7.5505642e-002
 -9.5054047e-002
 -1.0393267e-001
 -9.1542909e-002
 -9.4225348e-002
 -9.2629507e-002
 -7.6692179e-002
 -7.5753669e-002
 -1.0748681e-001
 -9.6630254e-002
 -4.7080177e-002
 -4.8950082e-002
 -5.8317507e-002
 -4.6867787e-002
 -2.9669753e-002
 -3.8521359e-002
 -2.1721990e-002
  2.2645312e-003
 -1.7522379e-002
 -4.0580508e-003
  1.5873846e-002
  3.1068718e-003
 -3.0248815e-003
  1.8603093e-002
  2.7520259e-002
  9.9601250e-003
  2.1034349e-002
  4.8705516e-002
  3.5228059e-002
  2.8050619e-002
  4.1761481e-002
  2.3951909e-002
  8.8979322e-003
  3.4379705e-002
  2.9671504e-002
 -5.5402464e-003
 -7.1614117e-004
 -1.3887889e-003
 -3.1446732e-002
 -3.7834374e-002
 -3.6696742e-002
 -5.8613484e-002
 -8.8676537e-002
 -8.3332064e-002
 -1.0581207e-001
 -1.0727817e-001
 -9.1828593e-002
 -9.9523145e-002
 -1.2510774e-001
 -1.3338378e-001
 -1.2389214e-001
 -1.3071550e-001
 -1.4620332e-001
 -1.4401562e-001
 -1.4687956e-001
 -1.6479011e-001
 -1.3514270e-001
 -1.3013897e-001
 -1.5605589e-001
 -1.5925648e-001
 -1.4294885e-001
 -1.5281245e-001
 -1.8062761e-001
 -1.5820849e-001
 -1.7332831e-001
 -1.8847964e-001
 -1.6656359e-001
 -1.6907881e-001
 -1.9136138e-001
 -1.8495730e-001
 -1.9153147e-001
 -1.9693603e-001
 -1.8790597e-001
 -1.8963555e-001
 -2.0660748e-001
 -2.0876988e-001
 -2.1887747e-001
 -2.2793128e-001
 -2.3182421e-001
 -2.3339542e-001
 -2.2113503e-001
 -2.2632879e-001
 -2.4214743e-001
 -2.2855795e-001
 -2.1690950e-001
 -2.4131479e-001
 -2.3950476e-001
 -2.2430008e-001
 -2.4638773e-001
 -2.4382933e-001
 -2.0348383e-001
 -2.0265500e-001
 -2.1222100e-001
 -2.1750057e-001
 -2.1276106e-001
 -2.2904719e-001
 -2.0599553e-001
 -2.0200521e-001
 -2.3199430e-001
 -2.1392246e-001
 -1.9779852e-001
 -2.1160267e-001
 -2.2896718e-001
 -2.1767441e-001
 -1.9721372e-001
 -1.9864742e-001
 -1.8629260e-001
 -1.8332129e-001
 -2.0179053e-001
 -1.9779035e-001
 -1.8301316e-001
 -1.9186323e-001
 -2.0501559e-001
 -1.8958977e-001
 -1.9324270e-001
 -1.9864129e-001
 -1.9402605e-001
 -1.8903037e-001
 -1.9295631e-001
 -1.8818253e-001
 -1.7865007e-001
 -1.8297077e-001
 -2.0910282e-001
 -1.8595311e-001
 -1.8329610e-001
 -2.1078907e-001
 -2.0078303e-001
 -1.7857993e-001
 -1.9405121e-001
 -2.0737159e-001
 -1.7369208e-001
 -1.7837840e-001
 -2.0411685e-001
 -1.9520539e-001
 -1.7868711e-001
 -1.6939459e-001
 -1.2700552e-001
 -1.0284098e-001
 -1.1832477e-001
 -1.1126054e-001
 -6.5981638e-002
 -4.7165816e-002
 -2.2240509e-002
  7.1927776e-003
  2.5978565e-002
  3.7413733e-003
  1.4984065e-002
  4.6951981e-002
  3.7660683e-004
 -7.1492713e-002
 -1.2455890e-001
 -2.0107318e-001
 -2.8994172e-001
 -2.6646759e-001
 -2.3443386e-001
 -2.5596841e-001
 -2.4994480e-001
 -2.5138926e-001
 -2.7906194e-001
 -2.5115054e-001
 -2.3224439e-001
 -2.7518822e-001
 -2.6625993e-001
 -2.4396486e-001
 -2.4793781e-001
 -2.7296231e-001
 -2.5756772e-001
 -2.5755321e-001
 -2.7155212e-001
 -2.5881450e-001
 -2.4085280e-001
 -2.5356796e-001
 -2.7290507e-001
 -2.7356127e-001
 -3.0093089e-001
 -3.4720600e-001
 -3.2727045e-001
 -3.0836073e-001
 -3.1559084e-001
 -4.1308511e-001
 -5.3624320e-001
 -5.3493318e-001
 -5.3319968e-001
 -5.6097174e-001
 -6.5696771e-001
 -7.3051533e-001
 -7.3983783e-001
 -7.9417800e-001
 -8.8005666e-001
 -8.8737687e-001
 -8.4927932e-001
 -7.6207671e-001
 -7.2319515e-001
 -5.8945926e-001
 -4.5922974e-001
 -4.0267764e-001
 -3.0646518e-001
 -2.2534748e-001
 -2.0643744e-001
 -1.9167870e-001
 -1.7389535e-001
 -1.8275683e-001
 -1.8237291e-001
 -1.5574891e-001
 -1.5784386e-001
 -1.5208700e-001
 -1.4724501e-001
 -1.4676295e-001
 -1.4724048e-001
 -1.4066497e-001
 -1.3516711e-001
 -1.5632493e-001
 -1.4983210e-001
 -1.1081547e-001
 -1.1237298e-001
 -1.3067489e-001
 -1.2062310e-001
 -9.7836520e-002
 -1.1027763e-001
 -1.0785278e-001
 -8.1101767e-002
 -8.7747418e-002
 -6.6664225e-002
 -4.7452053e-002
 -5.8057983e-002
 -5.9794335e-002
 -3.9608396e-002
 -2.6815189e-002
 -2.6284658e-002
 -1.3971890e-002
  8.5621316e-003
 -1.7329261e-003
 -7.2979515e-003
  1.6910198e-002
  2.1056065e-002
  6.1060504e-003
  1.5576745e-002
  1.7032488e-002
 -1.0265586e-003
 -5.5746014e-003
 -1.1419167e-002
 -2.9496427e-002
 -4.7204791e-002
 -5.2971009e-002
 -6.2781525e-002
 -9.2217286e-002
 -1.0430033e-001
 -1.0342677e-001
 -1.1114954e-001
 -1.2887159e-001
 -1.2992445e-001
 -1.3823566e-001
 -1.4739683e-001
 -1.4346341e-001
 -1.3741626e-001
 -1.6022439e-001
 -1.6581953e-001
 -1.5460969e-001
 -1.6625957e-001
 -1.7221952e-001
 -1.6461459e-001
 -1.7557039e-001
 -1.7111579e-001
 -1.8090027e-001
 -1.8511943e-001
 -2.0393617e-001
 -1.9516274e-001
 -1.8667410e-001
 -2.1373745e-001
 -2.1666388e-001
 -2.2443258e-001
 -2.1459502e-001
 -2.0105208e-001
 -2.1186985e-001
 -2.2130280e-001
 -2.4616342e-001
 -2.4429127e-001
 -2.4673599e-001
 -2.4110342e-001
 -2.5322700e-001
 -2.4929907e-001
 -2.7438254e-001
 -2.9304477e-001
 -2.8204156e-001
 -2.8826724e-001
 -2.9550600e-001
 -2.8622704e-001
 -2.7228005e-001
 -2.8211384e-001
 -2.8083798e-001
 -2.8254191e-001
 -2.8982804e-001
 -2.7910704e-001
 -2.7044095e-001
 -2.8467264e-001
 -2.8159323e-001
 -2.6584687e-001
 -2.6009846e-001
 -2.7326876e-001
 -2.7006652e-001
 -2.4430864e-001
 -2.5828692e-001
 -2.7588589e-001
 -2.7329433e-001
 -2.4784620e-001
 -2.5443643e-001
 -2.4926478e-001
 -2.5421571e-001
 -2.6475219e-001
 -2.6654531e-001
 -2.5566485e-001
 -2.6092132e-001
 -2.7114792e-001
 -2.4527340e-001
 -2.4528418e-001
 -2.6620716e-001
 -2.4538718e-001
 -2.5595759e-001
 -2.6485896e-001
 -2.3332730e-001
 -2.2378077e-001
 -2.4729482e-001
 -2.6463269e-001
 -2.5024249e-001
 -2.4708189e-001
 -2.6487676e-001
 -2.5744315e-001
 -2.5998537e-001
 -2.6016295e-001
 -2.4612487e-001
 -2.2107115e-001
 -2.5245002e-001
 -2.5269118e-001
 -2.3935869e-001
 -2.4733375e-001
 -2.6609713e-001
 -2.4903213e-001
 -2.3407497e-001
 -2.5388273e-001
 -2.5233290e-001
 -2.2489973e-001
 -2.3222034e-001
 -2.1262224e-001
 -1.8878244e-001
 -1.8440630e-001
 -1.9668526e-001
 -1.4218928e-001
 -8.3086855e-002
 -7.3242597e-002
 -6.7463242e-002
 -5.5156075e-002
 -3.0141843e-002
 -2.5398966e-002
  7.0524167e-003
 -8.4581435e-003
 -1.0176272e-001
 -1.7670286e-001
 -2.2850018e-001
 -2.9205315e-001
 -3.0141961e-001
 -2.8335544e-001
 -3.0258366e-001
 -2.9812004e-001
 -2.7664361e-001
 -2.8924686e-001
 -3.1278774e-001
 -3.0369895e-001
 -2.8465620e-001
 -3.1154507e-001
 -3.0905537e-001
 -2.9949541e-001
 -2.9917881e-001
 -3.0062830e-001
 -3.0915588e-001
 -2.8917718e-001
 -3.1190553e-001
 -3.0745950e-001
 -2.7385242e-001
 -3.0535331e-001
 -3.6294758e-001
 -3.2956797e-001
 -3.1880021e-001
 -3.2903377e-001
 -3.9793316e-001
 -5.1901096e-001
 -5.6150973e-001
 -5.6069755e-001
 -6.1814118e-001
 -7.3322158e-001
 -7.6784415e-001
 -8.0139815e-001
 -8.9693566e-001
 -9.5178629e-001
 -8.9825506e-001
 -8.0816109e-001
 -7.6235538e-001
 -5.9377719e-001
 -4.9179566e-001
 -4.4065581e-001
 -3.4576666e-001
 -2.5323363e-001
 -2.2985162e-001
 -2.1814442e-001
 -1.9962419e-001
 -1.9555631e-001
 -1.9747457e-001
 -1.9570355e-001
 -1.9214023e-001
 -2.0832891e-001
 -1.8819503e-001
 -1.6072089e-001
 -1.8763502e-001
 -1.7951191e-001
 -1.6816577e-001
 -1.7677979e-001
 -1.6782559e-001
 -1.6544017e-001
 -1.6666572e-001
 -1.5451191e-001
 -1.4554285e-001
 -1.3647909e-001
 -1.5300178e-001
 -1.4813471e-001
 -1.1252383e-001
 -9.5706507e-002
 -1.1110138e-001
 -1.0640744e-001
 -9.3161871e-002
 -8.9481569e-002
 -9.3718945e-002
 -7.5349992e-002
 -7.7974684e-002
 -7.6034722e-002
 -5.8120519e-002
 -2.1610334e-002
 -3.3926444e-002
 -1.0624338e-002
 -1.5311786e-003
 -2.1451277e-002
 -1.5734200e-002
 -1.3137846e-002
 -3.5886644e-002
 -5.0288159e-002
 -2.2166782e-002
 -3.5390110e-002
 -5.9614756e-002
 -5.4942151e-002
 -4.1612960e-002
 -6.5456797e-002
 -8.5353026e-002
 -9.7757681e-002
 -1.2319338e-001
 -1.4553488e-001
 -1.0223796e-001
 -1.1438570e-001
 -1.7866184e-001
 -1.5836916e-001
 -1.5838173e-001
 -1.9677299e-001
 -1.8829017e-001
 -1.9018593e-001
 -2.0439285e-001
 -2.1079585e-001
 -1.8844930e-001
 -1.8340563e-001
 -2.0333749e-001
 -2.0386328e-001
 -1.9578803e-001
 -2.3389425e-001
 -2.1244504e-001
 -1.7830816e-001
 -2.0870021e-001
 -2.1675230e-001
 -2.2403360e-001
 -2.2825709e-001
 -2.3453199e-001
 -2.6052729e-001
 -2.3534838e-001
 -1.9121407e-001
 -2.1444815e-001
 -2.5878430e-001
 -2.9074300e-001
 -2.5502642e-001
 -2.4999515e-001
 -2.8609501e-001
 -2.8927285e-001
 -2.4527208e-001
 -1.5945098e-001
 -2.3089963e-001
 -2.6512481e-001
 -2.4812511e-001
 -2.7911139e-001
 -3.6019759e-001
 -2.9402968e-001
 -2.1045160e-001
 -3.0052955e-001
 -3.3461031e-001
 -2.4249551e-001
 -1.9845486e-001
 -2.2859353e-001
 -2.8886588e-001
 -2.9884922e-001
 -2.7849984e-001
 -2.8867024e-001
 -2.6724247e-001
 -2.8539564e-001
 -1.8452093e-001
 -9.8441290e-002
 -2.2067805e-001
 -2.5159847e-001
 -1.7866168e-001
 -1.8798881e-001
 -2.4081242e-001
 -1.9272027e-001
 -1.9219688e-001
 -2.1224562e-001
 -2.3677845e-001
 -2.5401535e-001
 -2.4934897e-001
 -2.5764315e-001
 -1.6201020e-001
 -9.6207501e-002
 -1.7646267e-001
 -2.0730109e-001
 -2.0168616e-001
 -2.2797869e-001
 -2.2139464e-001
 -2.0162600e-001
 -2.1929869e-001
 -1.9780303e-001
 -1.8918630e-001
 -1.8873188e-001
 -2.0763501e-001
 -2.1606334e-001
 -2.0643759e-001
 -2.2304070e-001
 -2.1639596e-001
 -1.7442941e-001
 -1.9450064e-001
 -1.9299904e-001
 -1.8582774e-001
 -2.1168376e-001
 -1.9418761e-001
 -2.1062563e-001
 -2.0970975e-001
 -2.1866447e-001
 -2.2834237e-001
 -2.2638745e-001
 -1.7238443e-001
 -1.4650061e-001
 -2.1534474e-001
 -2.6793357e-001
 -1.5758982e-001
 -1.3623978e-001
 -2.0274014e-001
 -1.9419770e-001
 -2.1569027e-001
 -2.1109681e-001
 -1.8398022e-001
 -1.9191627e-001
 -2.1091279e-001
 -1.4808431e-001
 -1.8540452e-001
 -1.6000917e-001
 -5.6333588e-002
 -5.9277733e-002
 -9.2752001e-002
 -8.8738602e-002
 -5.8856768e-002
 -2.0110893e-002
  1.9882032e-002
  7.0914476e-003
 -2.2046785e-002
  2.4847337e-002
  4.0788338e-002
  3.3923820e-002
 -2.8093423e-002
 -9.2717142e-002
 -1.6457978e-001
 -2.3582259e-001
 -2.4078726e-001
 -2.3452415e-001
 -2.6026418e-001
 -2.5591220e-001
 -2.3382052e-001
 -2.6476646e-001
 -2.6123781e-001
 -2.2291229e-001
 -2.4351418e-001
 -2.6717040e-001
 -2.0623510e-001
 -2.2952279e-001
 -2.7370193e-001
 -2.4159847e-001
 -2.6514174e-001
 -3.2019191e-001
 -2.6452945e-001
 -2.2949054e-001
 -2.7689129e-001
 -2.4515747e-001
 -2.1951817e-001
 -3.1950018e-001
 -2.5232229e-001
 -1.0452859e-001
 -1.3815673e-001
 -2.6187177e-001
 -3.3116728e-001
 -3.4483313e-001
 -3.3541940e-001
 -4.4293922e-001
 -5.0690552e-001
 -5.8422287e-001
 -7.0619576e-001
 -7.8082653e-001
 -7.8931757e-001
 -7.7185734e-001
 -7.1817300e-001
 -6.1045933e-001
 -5.3342924e-001
 -4.5575544e-001
 -3.1670765e-001
 -1.8443795e-001
 -2.3166791e-001
 -2.2438690e-001
 -2.1337519e-001
 -2.1757616e-001
 -1.6971058e-001
 -1.9019150e-001
 -2.3376047e-001
 -2.1516076e-001
 -1.7548081e-001
 -1.6571973e-001
 -2.0443841e-001
 -2.1270318e-001
 -1.8111689e-001
 -1.8547869e-001
 -1.8500815e-001
 -1.7158698e-001
 -1.5770531e-001
 -1.4190182e-001
 -1.4276163e-001
 -1.5066616e-001
 -1.3795782e-001
 -1.2661987e-001
 -1.3066850e-001
 -1.4416009e-001
 -1.4471103e-001
 -1.0495718e-001
 -1.4154401e-001
 -9.5094517e-002
 -2.1215232e-002
 -8.2146388e-002
 -9.6365988e-002
 -5.6641407e-002
 -4.2189531e-002
 -5.9908020e-002
 -3.6883289e-002
 -4.1970766e-002
 -4.7188121e-002
 -5.0509768e-002
 -4.6495450e-002
 -5.4405256e-002
 -4.9954811e-002
 -2.1748711e-002
 -8.8970807e-002
 -1.3245850e-001
 -5.2744016e-002
 -8.1918431e-002
 -1.0628103e-001
 -1.0735761e-001
 -1.5345867e-001
 -1.3061187e-001
 -1.1251653e-001
 -1.3104982e-001
 -1.6388747e-001
 -1.8635399e-001
 -1.9710079e-001
 -1.9050458e-001
 -1.6506796e-001
 -1.9816909e-001
 -2.3503396e-001
 -2.1485321e-001
 -1.7079884e-001
 -1.5223379e-001
 -1.7643258e-001
 -1.8947181e-001
 -1.9067265e-001
 -1.9580033e-001
 -2.3004012e-001
 -2.4166437e-001
 -2.4013380e-001
 -2.4108973e-001
 -2.4207266e-001
 -1.9180299e-001
 -1.5992398e-001
 -2.0477586e-001
 -1.9881113e-001
 -2.4165977e-001
 -2.7497131e-001
 -2.3389938e-001
 -2.2248270e-001
 -2.6318755e-001
 -2.8517548e-001
 -2.8768440e-001
 -2.6239589e-001
 -2.9681780e-001
 -2.9906776e-001
 -2.8976803e-001
 -3.1821776e-001
 -3.2712455e-001
 -2.9620786e-001
 -3.0875227e-001
 -3.2450767e-001
 -3.0389264e-001
 -3.2623970e-001
 -3.6279544e-001
 -3.2057028e-001
 -2.9950011e-001
 -2.9774406e-001
 -3.1326785e-001
 -2.9757156e-001
 -2.7185974e-001
 -2.7943300e-001
 -3.1423728e-001
 -2.7192383e-001
 -2.3261732e-001
 -2.8558395e-001
 -3.0207591e-001
 -2.8308444e-001
 -2.8371845e-001
 -2.6895015e-001
 -2.6660203e-001
 -3.1841663e-001
 -2.8750922e-001
 -2.1488468e-001
 -2.3980169e-001
 -2.5493914e-001
 -2.7925837e-001
 -3.1013340e-001
 -2.8086380e-001
 -2.4973087e-001
 -2.8732878e-001
 -2.7255373e-001
 -2.3589230e-001
 -2.8634891e-001
 -2.9019980e-001
 -2.6477280e-001
 -2.7953631e-001
 -2.4991824e-001
 -2.3949338e-001
 -2.6037906e-001
 -2.5789300e-001
 -2.6121704e-001
 -2.2852719e-001
 -2.4036286e-001
 -2.8056565e-001
 -2.8422776e-001
 -2.9194791e-001
 -2.5546776e-001
 -2.0569519e-001
 -2.0619486e-001
 -2.4136516e-001
 -2.5917064e-001
 -2.4395154e-001
 -2.5236241e-001
 -2.7339332e-001
 -2.5432689e-001
 -2.0506576e-001
 -2.1551410e-001
 -2.1191853e-001
 -1.7442532e-001
 -1.7225113e-001
 -8.0583047e-002
 -3.7501902e-002
 -4.7930994e-002
 -6.5581554e-002
 -3.4229451e-002
 -1.3222770e-002
 -6.2888990e-002
 -8.4603222e-002
 -1.4114009e-001
 -1.9424274e-001
 -2.5967492e-001
 -3.1928713e-001
 -2.9564543e-001
 -2.9465793e-001
 -3.0541930e-001
 -3.0268796e-001
 -3.4875730e-001
 -3.3496529e-001
 -2.7459024e-001
 -2.9272013e-001
 -3.1743521e-001
 -2.9849677e-001
 -3.0388984e-001
 -3.0392329e-001
 -3.0830390e-001
 -3.0501630e-001
 -3.1099597e-001
 -3.4985039e-001
 -2.9694721e-001
 -2.8617767e-001
 -3.1650001e-001
 -3.4684306e-001
 -3.3776234e-001
 -3.2775086e-001
 -2.5987742e-001
 -3.5200457e-001
 -4.3593820e-001
 -4.0638153e-001
 -4.4016434e-001
 -5.2989002e-001
 -6.1402107e-001
 -6.6303837e-001
 -7.2873634e-001
 -8.2989816e-001
 -8.7350638e-001
 -8.3822577e-001
 -8.1933801e-001
 -6.9868191e-001
 -5.6877150e-001
 -5.4526275e-001
 -4.1133825e-001
 -3.0173492e-001
 -2.7621818e-001
 -2.6849437e-001
 -2.3458085e-001
 -2.2797152e-001
 -2.4426653e-001
 -2.4880274e-001
 -2.4038861e-001
 -2.0994301e-001
 -2.0693891e-001
 -2.0512541e-001
 -2.1710403e-001
 -2.4380398e-001
 -2.0247766e-001
 -1.8739018e-001
 -2.3249250e-001
 -2.0916946e-001
 -1.9798769e-001
 -1.9702917e-001
 -2.1411675e-001
 -2.4211974e-001
 -1.5252433e-001
 -1.4585720e-001
 -1.6829393e-001
 -1.4727424e-001
 -1.2352819e-001
 -1.0791775e-001
 -1.0259844e-001
 -1.2438560e-001
 -1.1365235e-001
 -9.3556639e-002
 -1.0460550e-001
 -1.1759413e-001
 -1.0388730e-001
 -1.0936012e-001
 -1.1885614e-001
 -1.0282686e-001
 -4.5240134e-002
 -1.5636304e-002
 -7.2416696e-002
 -2.2386694e-002
 -3.0440518e-002
 -6.0824671e-002
 -8.3117219e-002
 -6.4074479e-002
 -6.3729561e-002
 -6.5714913e-002
 -5.7420154e-002
 -7.1569393e-002
 -8.8764450e-002
 -1.2040613e-001
 -1.5080854e-001
 -1.4160974e-001
 -8.1411237e-002
 -1.1994860e-001
 -1.6671128e-001
 -1.4397817e-001
 -1.4778788e-001
 -1.9423450e-001
 -2.0790707e-001
 -1.5474335e-001
 -1.7551880e-001
 -2.2628639e-001
 -1.9295288e-001
 -1.7529560e-001
 -1.9490502e-001
 -2.1203474e-001
 -1.8918647e-001
 -1.9435703e-001
 -2.1620712e-001
 -2.0099579e-001
 -1.9716494e-001
 -2.1538659e-001
 -2.2827176e-001
 -2.0077105e-001
 -2.0980455e-001
 -2.3103816e-001
 -2.0129490e-001
 -2.2855675e-001
 -2.5831060e-001
 -2.4297822e-001
 -2.3802016e-001
 -2.4909803e-001
 -2.4175505e-001
 -2.7579609e-001
 -2.9721021e-001
 -2.5342790e-001
 -2.5118280e-001
 -2.9142246e-001
 -2.9672479e-001
 -2.5855020e-001
 -3.0916707e-001
 -2.7784699e-001
 -2.5428503e-001
 -2.7409557e-001
 -3.1145689e-001
 -3.0883831e-001
 -2.6842638e-001
 -2.8298903e-001
 -3.1493357e-001
 -2.8518439e-001
 -2.8265392e-001
 -3.0608435e-001
 -2.5478942e-001
 -2.6302986e-001
 -3.0286889e-001
 -3.0350882e-001
 -2.4964668e-001
 -2.4200609e-001
 -2.5395921e-001
 -2.6343878e-001
 -2.8980663e-001
 -2.6213856e-001
 -2.1950322e-001
 -2.6079770e-001
 -2.6552800e-001
 -2.3711645e-001
 -2.4917449e-001
 -2.3362417e-001
 -2.3860751e-001
 -2.4581397e-001
 -2.6741241e-001
 -2.5973431e-001
 -2.4219672e-001
 -2.3916793e-001
 -2.5035001e-001
 -2.8875822e-001
 -2.7653181e-001
 -2.4862940e-001
 -3.0382184e-001
 -2.5537776e-001
 -2.3083181e-001
 -3.1349072e-001
 -2.4424645e-001
 -2.0516116e-001
 -2.2135589e-001
 -2.1790606e-001
 -2.3625168e-001
 -2.4350968e-001
 -2.4908220e-001
 -2.3995852e-001
 -2.3411510e-001
 -2.3833081e-001
 -2.4427194e-001
 -2.3722938e-001
 -2.6111051e-001
 -2.8361063e-001
 -2.4761812e-001
 -2.1754842e-001
 -2.6361612e-001
 -2.7673024e-001
 -1.7495542e-001
 -1.9807968e-001
 -2.6569749e-001
 -2.3378494e-001
 -2.0810851e-001
 -2.3574406e-001
 -2.2759163e-001
 -2.2504505e-001
 -2.5536808e-001
 -2.1132503e-001
 -2.0542945e-001
 -2.1866798e-001
 -1.6723190e-001
 -1.5018188e-001
 -1.7582764e-001
 -2.1374204e-001
 -2.0519291e-001
 -9.1804613e-002
 -3.1950629e-002
 -3.3732223e-002
  1.6697478e-002
  4.7871440e-003
 -1.2016924e-002
  5.0722796e-003
 -2.2156706e-002
 -3.8317737e-002
 -4.4979993e-002
 -1.2259781e-001
 -1.6393444e-001
 -2.3471485e-001
 -3.0758513e-001
 -3.4014677e-001
 -2.5944290e-001
 -1.9493060e-001
 -2.6467897e-001
 -2.6861618e-001
 -2.9308050e-001
 -3.0782933e-001
 -2.8341457e-001
 -2.3353280e-001
 -2.4131845e-001
 -3.2030063e-001
 -2.8257734e-001
 -2.3639455e-001
 -2.4785407e-001
 -2.3259556e-001
 -2.3482828e-001
 -2.6221279e-001
 -3.0384253e-001
 -2.8045888e-001
 -2.3475972e-001
 -3.1341610e-001
 -3.1800748e-001
 -3.0865649e-001
 -3.4584181e-001
 -3.4000412e-001
 -3.3974434e-001
 -3.7712851e-001
 -4.0869218e-001
 -3.9497146e-001
 -4.6791021e-001
 -4.6586763e-001
 -4.8681832e-001
 -5.4468914e-001
 -6.2855666e-001
 -6.5761521e-001
 -7.1491604e-001
 -8.3851684e-001
 -8.8040047e-001
 -8.4282817e-001
 -7.7764949e-001
 -7.6042233e-001
 -6.3741249e-001
 -4.9438905e-001
 -4.2353866e-001
 -3.4772377e-001
 -2.7286886e-001
 -2.5031329e-001
 -2.4610965e-001
 -2.2105272e-001
 -2.1856177e-001
 -1.8037426e-001
 -1.6667476e-001
 -1.8624548e-001
 -2.2009377e-001
 -2.0386729e-001
 -1.7871332e-001
 -2.2026173e-001
 -1.6511557e-001
 -1.7388659e-001
 -2.4259010e-001
 -1.5408739e-001
 -1.7599497e-001
 -2.0460870e-001
 -1.7427862e-001
 -1.3660661e-001
 -1.2738681e-001
 -1.5069250e-001
 -1.5405742e-001
 -1.4142898e-001
 -1.4036171e-001
 -1.3534952e-001
 -1.0858279e-001
 -9.4523094e-002
 -9.2992811e-002
 -7.0473034e-002
 -6.8659581e-002
 -5.3964678e-002
 -6.1589290e-002
 -4.6950892e-002
 -4.9149649e-002
 -4.6102996e-002
 -3.2289718e-002
 -4.6762833e-002
 -6.2764280e-002
 -3.8210317e-002
 -2.3097308e-002
 -5.1189181e-002
 -4.6053083e-002
 -2.6014672e-002
 -4.1504510e-002
 -7.1270164e-002
 -1.0711155e-001
 -8.8707820e-002
 -1.3294629e-001
 -9.1243519e-002
 -6.4113413e-002
 -1.2704165e-001
 -1.5039405e-001
 -1.2119718e-001
 -1.2683981e-001
 -1.5949984e-001
 -1.6704038e-001
 -1.6808473e-001
 -1.9838112e-001
 -2.0948660e-001
 -1.7699317e-001
 -1.8706942e-001
 -2.1414838e-001
 -2.0580553e-001
 -2.0565117e-001
 -2.2927392e-001
 -2.0677260e-001
 -2.1145665e-001
 -2.3724870e-001
 -2.3509413e-001
 -2.1074798e-001
 -2.2885878e-001
 -2.5037651e-001
 -2.3244537e-001
 -2.3134427e-001
 -2.3943024e-001
 -2.3017967e-001
 -2.3239330e-001
 -2.4714875e-001
 -2.5313260e-001
 -2.6617940e-001
 -2.6986397e-001
 -2.4640564e-001
 -2.4682797e-001
 -2.5917086e-001
 -2.9872222e-001
 -3.0453474e-001
 -2.7864383e-001
 -2.8955298e-001
 -2.9944302e-001
 -2.6858675e-001
 -2.7803637e-001
 -2.8780599e-001
 -2.9637390e-001
 -3.2771457e-001
 -3.0542635e-001
 -2.5781980e-001
 -2.8513292e-001
 -3.0401383e-001
 -2.9631334e-001
 -2.9160861e-001
 -3.2677820e-001
 -3.2337850e-001
 -2.5646669e-001
 -2.6689043e-001
 -2.9346802e-001
 -2.8350568e-001
 -2.8350546e-001
 -2.9703009e-001
 -2.9041594e-001
 -2.7155303e-001
 -2.7960926e-001
 -2.7191666e-001
 -2.6101519e-001
 -2.9105949e-001
 -2.8254986e-001
 -2.5970029e-001
 -2.6693120e-001
 -3.0300624e-001
 -3.0432451e-001
 -2.6532166e-001
 -2.6239658e-001
 -2.8544383e-001
 -2.6892144e-001
 -3.0463437e-001
 -2.8092761e-001
 -2.5633448e-001
 -2.5222463e-001
 -2.6697385e-001
 -2.7859729e-001
 -2.6978653e-001
 -2.8721565e-001
 -2.7868190e-001
 -2.7462639e-001
 -2.6954762e-001
 -2.8427943e-001
 -2.6741309e-001
 -2.5716303e-001
 -2.8064752e-001
 -2.8296231e-001
 -2.7811219e-001
 -2.7127886e-001
 -2.6885101e-001
 -2.5508220e-001
 -2.5595692e-001
 -2.6982550e-001
 -2.7375569e-001
 -2.5077569e-001
 -2.5277343e-001
 -2.6187565e-001
 -2.6287289e-001
 -2.8076224e-001
 -2.6976222e-001
 -2.5218927e-001
 -2.6399962e-001
 -2.7958373e-001
 -2.6035056e-001
 -2.4955040e-001
 -2.6911200e-001
 -2.6994097e-001
 -2.5663826e-001
 -2.5981837e-001
 -2.4349442e-001
 -1.9655284e-001
 -2.0604666e-001
 -2.0038226e-001
 -1.8540555e-001
 -1.7159085e-001
 -1.2736958e-001
 -8.0638714e-002
 -3.4358832e-002
 -6.9718529e-002
 -8.5003651e-002
 -1.2582067e-002
 -1.0316851e-002
 -5.4748946e-002
 -1.1468269e-001
 -1.8238254e-001
 -2.6127946e-001
 -3.2891671e-001
 -3.3229189e-001
 -2.9916979e-001
 -3.1801230e-001
 -3.0993339e-001
 -3.1477353e-001
 -3.2791842e-001
 -2.8337884e-001
 -2.7045792e-001
 -3.0392640e-001
 -3.1130460e-001
 -3.0370593e-001
 -3.3866937e-001
 -3.1751164e-001
 -2.8001515e-001
 -3.0148495e-001
 -3.1514659e-001
 -2.9585901e-001
 -3.0221643e-001
 -3.3282955e-001
 -3.2547621e-001
 -3.0416011e-001
 -3.6794110e-001
 -3.8281368e-001
 -3.1672838e-001
 -3.1051403e-001
 -2.5538008e-001
 -2.7174107e-001
 -4.1577436e-001
 -4.6675561e-001
 -4.7027304e-001
 -5.3120848e-001
 -6.4538361e-001
 -7.0659209e-001
 -7.7320414e-001
 -8.9138871e-001
 -9.4270457e-001
 -8.7766324e-001
 -8.0906342e-001
 -7.7028770e-001
 -6.3702836e-001
 -5.2073565e-001
 -4.7703702e-001
 -3.8021468e-001
 -2.9281478e-001
 -2.7043294e-001
 -2.9077957e-001
 -2.6084894e-001
 -2.0708300e-001
 -2.4419413e-001
 -2.3782709e-001
 -2.0913314e-001
 -2.3752756e-001
 -2.3145312e-001
 -2.1727792e-001
 -2.1881052e-001
 -2.4101488e-001
 -2.4072288e-001
 -2.3160029e-001
 -2.5123669e-001
 -2.2173792e-001
 -1.7654769e-001
 -1.9232914e-001
 -2.0028916e-001
 -1.8448049e-001
 -1.8623405e-001
 -2.0147073e-001
 -1.8483060e-001
 -2.1033748e-001
 -2.1003437e-001
 -1.7314728e-001
 -1.4770632e-001
 -1.4448469e-001
 -1.2902860e-001
 -1.3770801e-001
 -1.4477492e-001
 -1.2789780e-001
 -1.2259687e-001
 -1.4329811e-001
 -1.2069553e-001
 -6.1298606e-002
 -8.7497303e-002
 -1.0525225e-001
 -9.5613628e-002
 -7.0011256e-002
 -8.7112552e-002
 -1.1027839e-001
 -1.0738865e-001
 -1.0325578e-001
 -8.2868897e-002
 -8.2552345e-002
 -9.0196224e-002
 -1.1091967e-001
 -1.2634993e-001
 -1.2554380e-001
 -1.4561277e-001
 -1.7495132e-001
 -1.7706911e-001
 -1.7044556e-001
 -1.8975405e-001
 -2.0941613e-001
 -1.9282063e-001
 -2.0531393e-001
 -2.3252779e-001
 -1.9221960e-001
 -2.1461102e-001
 -2.1641569e-001
 -1.9210390e-001
 -2.0612992e-001
 -2.5955884e-001
 -2.4774351e-001
 -1.9036166e-001
 -2.1879147e-001
 -2.2985783e-001
 -2.2647684e-001
 -2.2965148e-001
 -2.1990883e-001
 -1.9449172e-001
 -2.2032413e-001
 -2.4514152e-001
 -2.3727069e-001
 -2.2600352e-001
 -2.5255258e-001
 -2.7008209e-001
 -2.6808624e-001
 -2.6327281e-001
 -2.5288001e-001
 -2.2388966e-001
 -2.3315949e-001
 -3.0882701e-001
 -2.9838640e-001
 -2.3840429e-001
 -2.4479114e-001
 -2.8710753e-001
 -2.9524838e-001
 -2.7987387e-001
 -2.8572696e-001
 -2.8428260e-001
 -3.0228015e-001
 -3.0948636e-001
 -2.8283983e-001
 -2.7895859e-001
 -2.9926020e-001
 -2.9796003e-001
 -2.8314375e-001
 -3.0376508e-001
 -3.0072591e-001
 -2.8902463e-001
 -2.9257222e-001
 -3.1201803e-001
 -3.0876547e-001
 -2.8629198e-001
 -2.9585335e-001
 -2.8444325e-001
 -2.4926331e-001
 -2.6718153e-001
 -2.9534148e-001
 -2.6664291e-001
 -2.7427969e-001
 -2.8808570e-001
 -2.6968566e-001
 -2.6116625e-001
 -2.8320386e-001
 -2.9263598e-001
 -2.7072788e-001
 -2.8522477e-001
 -2.7950385e-001
 -2.5722139e-001
 -2.7976358e-001
 -2.9241913e-001
 -2.6331713e-001
 -2.3473410e-001
 -2.5964769e-001
 -2.6887560e-001
 -2.6701033e-001
 -2.6655132e-001
 -2.5755310e-001
 -2.2343161e-001
 -2.3131119e-001
 -2.9186080e-001
 -2.7762288e-001
 -2.3214401e-001
 -2.4510629e-001
 -2.5196973e-001
 -2.3754695e-001
 -2.6492797e-001
 -2.6638377e-001
 -2.2419369e-001
 -2.2855017e-001
 -2.5811087e-001
 -2.5347867e-001
 -2.5917241e-001
 -2.7568679e-001
 -2.4356028e-001
 -2.3408431e-001
 -2.3147875e-001
 -2.4658072e-001
 -2.5911374e-001
 -2.3043537e-001
 -2.2669371e-001
 -2.3953002e-001
 -2.3555153e-001
 -2.4149971e-001
 -2.4812857e-001
 -2.1261298e-001
 -2.1633691e-001
 -2.1982771e-001
 -1.9318840e-001
 -1.7754011e-001
 -1.8213616e-001
 -1.7702597e-001
 -1.3012778e-001
 -1.0110780e-001
 -9.8307866e-002
 -3.1220763e-002
 -3.4348792e-003
 -6.6550507e-003
 -9.4517710e-003
 -1.2348105e-002
  8.9273056e-003
 -4.2025683e-002
 -1.4419225e-001
 -2.0521109e-001
 -2.8262653e-001
 -2.9157415e-001
 -2.7251089e-001
 -2.7421457e-001
 -2.7106276e-001
 -2.6717233e-001
 -2.6926641e-001
 -2.6543941e-001
 -2.6331087e-001
 -2.8650827e-001
 -2.9447713e-001
 -2.7314501e-001
 -2.7725831e-001
 -3.0443450e-001
 -2.6258439e-001
 -2.6529305e-001
 -3.0472387e-001
 -2.7107197e-001
 -2.5326326e-001
 -2.8754197e-001
 -2.7911723e-001
 -2.7604327e-001
 -3.3560808e-001
 -3.0475083e-001
 -2.2397105e-001
 -2.1501953e-001
 -3.1245686e-001
 -4.0490586e-001
 -4.1773955e-001
 -4.4348206e-001
 -4.7267752e-001
 -5.5211810e-001
 -6.4809429e-001
 -7.2147955e-001
 -8.0307749e-001
 -8.4646048e-001
 -8.2338698e-001
 -7.6955306e-001
 -7.4575144e-001
 -6.2137569e-001
 -4.7206913e-001
 -4.0225502e-001
 -3.1978307e-001
 -2.7331269e-001
 -2.4118525e-001
 -2.2461178e-001
 -2.3587656e-001
 -2.1134636e-001
 -1.9445381e-001
 -2.2900950e-001
 -2.2270421e-001
 -1.8967912e-001
 -1.8701049e-001
 -2.1461144e-001
 -1.9050871e-001
 -1.9650360e-001
 -2.0475426e-001
 -1.7275782e-001
 -1.8327563e-001
 -2.0299434e-001
 -1.7997514e-001
 -1.6927846e-001
 -2.1638804e-001
 -1.8575406e-001
 -1.2771426e-001
 -1.3448984e-001
 -1.7338826e-001
 -1.6787236e-001
 -1.0693706e-001
 -1.1879159e-001
 -1.4047822e-001
 -1.1577701e-001
 -1.2332057e-001
 -1.4484390e-001
 -8.8935445e-002
 -7.1582889e-002
 -8.7962579e-002
 -7.5752579e-002
 -6.8547667e-002
 -7.4249744e-002
 -8.2501255e-002
 -3.0723208e-002
 -3.5021817e-002
 -6.3745011e-002
 -6.3706873e-002
 -6.2656021e-002
 -7.0506258e-002
 -8.4162494e-002
 -8.7851232e-002
 -7.1650834e-002
 -9.8900115e-002
 -1.2256769e-001
 -1.1757994e-001
 -1.4819017e-001
 -1.7507412e-001
 -1.9211870e-001
 -1.7092970e-001
 -1.4793265e-001
 -1.8380490e-001
 -1.8393647e-001
 -1.8227334e-001
 -1.7886941e-001
 -2.0711783e-001
 -2.2079480e-001
 -2.1993615e-001
 -2.0872939e-001
 -2.0858157e-001
 -2.2467410e-001
 -2.0829910e-001
 -2.1772192e-001
 -2.4027309e-001
 -2.1842617e-001
 -2.3086444e-001
 -2.3926504e-001
 -2.2913813e-001
 -2.6271933e-001
 -2.6774156e-001
 -2.1866078e-001
 -2.1888065e-001
 -2.4719882e-001
 -2.4131702e-001
 -2.1827307e-001
 -2.2753802e-001
 -2.7026018e-001
 -2.6449053e-001
 -2.6669829e-001
 -2.8601057e-001
 -2.7677524e-001
 -2.4866722e-001
 -2.7059870e-001
 -2.9061992e-001
 -2.8024623e-001
 -2.9252031e-001
 -3.1172711e-001
 -2.9065412e-001
 -3.1236957e-001
 -3.1049032e-001
 -2.8197193e-001
 -2.7572453e-001
 -2.8727024e-001
 -3.1125543e-001
 -2.6731785e-001
 -2.8168347e-001
 -3.0832804e-001
 -2.8554432e-001
 -2.6942798e-001
 -2.9060507e-001
 -2.8924357e-001
 -2.7361383e-001
 -2.9263747e-001
 -2.8390567e-001
 -2.7153318e-001
 -2.9276659e-001
 -2.9278663e-001
 -2.5637913e-001
 -2.7204413e-001
 -2.8788627e-001
 -2.6339723e-001
 -2.2928027e-001
 -2.5524037e-001
 -2.7741759e-001
 -2.4946696e-001
 -2.6254742e-001
 -2.7575204e-001
 -2.6058840e-001
 -2.4417124e-001
 -2.6154218e-001
 -2.5802395e-001
 -2.5199096e-001
 -2.5811645e-001
 -2.5664591e-001
 -2.5137119e-001
 -2.6829486e-001
 -2.4395068e-001
 -2.4239563e-001
 -2.5490045e-001
 -2.6615648e-001
 -2.5100739e-001
 -2.3841238e-001
 -2.5024074e-001
 -2.6993427e-001
 -2.6651454e-001
 -2.4147985e-001
 -2.6369100e-001
 -2.7050714e-001
 -2.6128354e-001
 -2.3635467e-001
 -2.2152977e-001
 -2.2502207e-001
 -2.1553156e-001
 -2.2158972e-001
 -2.0477997e-001
 -1.9889895e-001
 -1.8543837e-001
 -1.5256443e-001
 -1.4600426e-001
 -9.2388254e-002
 -6.7468854e-002
 -4.9221931e-002
 -4.3510441e-002
 -2.2102613e-002
  2.6350488e-003
 -4.0773530e-002
 -6.5486782e-002
 -1.0876485e-001
 -1.8579571e-001
 -2.8778917e-001
 -3.0955855e-001
 -2.5778110e-001
 -2.9423609e-001
 -3.1660550e-001
 -2.9427552e-001
 -2.9678987e-001
 -3.1952904e-001
 -3.1413732e-001
 -2.7680969e-001
 -2.7071766e-001
 -2.8642247e-001
 -3.0850423e-001
 -3.1141101e-001
 -2.9589771e-001
 -2.8558316e-001
 -2.8685238e-001
 -2.8583231e-001
 -2.9425056e-001
 -3.1358666e-001
 -2.9059917e-001
 -3.2257728e-001
 -3.5167358e-001
 -3.0764698e-001
 -3.1273757e-001
 -2.9743593e-001
 -3.4911720e-001
 -4.4835548e-001
 -4.3676229e-001
 -4.5825785e-001
 -5.5104303e-001
 -6.1876332e-001
 -6.9130371e-001
 -7.9489494e-001
 -8.7299679e-001
 -8.8300987e-001
 -8.2176646e-001
 -7.5821023e-001
 -6.7364198e-001
 -5.5244218e-001
 -5.0002146e-001
 -4.0424128e-001
 -2.8728138e-001
 -2.8321896e-001
 -2.7795261e-001
 -2.5124486e-001
 -2.4932049e-001
 -2.3708771e-001
 -2.2509304e-001
 -2.3193750e-001
 -2.1258633e-001
 -1.9596877e-001
 -2.1551613e-001
 -2.3928866e-001
 -2.3773918e-001
 -2.0501838e-001
 -1.8584150e-001
 -2.0132707e-001
 -1.9638946e-001
 -1.7875689e-001
 -1.9037998e-001
 -1.9250471e-001
 -1.8928852e-001
 -1.9143448e-001
 -1.8469907e-001
 -1.3081464e-001
 -1.3949154e-001
 -1.5357315e-001
 -1.4762259e-001
 -1.4688530e-001
 -1.3834140e-001
 -1.1827896e-001
 -1.1963766e-001
 -1.2213557e-001
 -1.0410103e-001
 -7.9727965e-002
 -8.6728405e-002
 -7.7069396e-002
 -4.9309368e-002
 -4.7010470e-002
 -7.7700029e-002
 -7.9408462e-002
 -7.2799055e-002
 -6.8768859e-002
 -9.9820107e-002
 -8.9387046e-002
 -9.1947375e-002
 -1.0655352e-001
 -1.0951647e-001
 -1.2738258e-001
 -1.5791390e-001
 -1.7922921e-001
 -1.4880566e-001
 -1.6196644e-001
 -1.8797616e-001
 -1.8882109e-001
 -1.9343920e-001
 -2.2071115e-001
 -2.1821505e-001
 -2.0666852e-001
 -2.1799084e-001
 -2.2839734e-001
 -2.5121639e-001
 -2.4184247e-001
 -2.1240625e-001
 -1.8602531e-001
 -2.0558608e-001
 -2.3477207e-001
 -2.2440279e-001
 -2.2346076e-001
 -2.5771141e-001
 -2.5453302e-001
 -2.4337640e-001
 -2.4331601e-001
 -2.5007753e-001
 -2.2875062e-001
 -2.4109940e-001
 -2.6848056e-001
 -2.5583596e-001
 -2.6632365e-001
 -3.1973626e-001
 -2.8129124e-001
 -2.3044520e-001
 -2.6459561e-001
 -2.8175237e-001
 -2.8524079e-001
 -2.9103882e-001
 -2.9908677e-001
 -2.8355846e-001
 -3.0294253e-001
 -3.2877088e-001
 -3.2531121e-001
 -3.0867657e-001
 -3.1816766e-001
 -3.4692304e-001
 -3.4638747e-001
 -3.0261345e-001
 -2.8781271e-001
 -2.9276231e-001
 -3.0137538e-001
 -3.2808346e-001
 -2.9930458e-001
 -2.7286678e-001
 -2.9830113e-001
 -2.8962596e-001
 -2.8692464e-001
 -2.9509806e-001
 -3.0114401e-001
 -2.8587932e-001
 -2.7982006e-001
 -3.1161484e-001
 -2.9535341e-001
 -2.6613169e-001
 -2.6690997e-001
 -2.8176631e-001
 -2.7118272e-001
 -2.7136913e-001
 -3.0353557e-001
 -2.4913215e-001
 -2.5491082e-001
 -2.8241568e-001
 -2.7026910e-001
 -2.5103379e-001
 -2.7973332e-001
 -2.8452288e-001
 -2.6110578e-001
 -2.8111928e-001
 -2.7508568e-001
 -2.6769444e-001
 -2.6796792e-001
 -2.7081309e-001
 -2.6345405e-001
 -2.7795425e-001
 -3.0285431e-001
 -2.5858574e-001
 -2.4304802e-001
 -2.5797042e-001
 -2.7906509e-001
 -2.5079408e-001
 -2.4591375e-001
 -2.7561934e-001
 -2.4775426e-001
 -2.5009929e-001
 -2.6413737e-001
 -2.5826052e-001
 -2.4749170e-001
 -2.6706085e-001
 -2.9909485e-001
 -2.5179631e-001
 -2.1926495e-001
 -2.2232370e-001
 -1.8029377e-001
 -1.7924162e-001
 -1.7617931e-001
 -1.7005506e-001
 -1.1592637e-001
 -9.1629747e-002
 -1.1233051e-001
 -7.6192561e-002
 -5.0082314e-002
 -4.9989079e-002
 -6.9348123e-002
  2.3217425e-003
 -1.1600515e-002
 -1.4997254e-001
 -1.9426859e-001
 -2.6862392e-001
 -3.1142019e-001
 -2.6252800e-001
 -3.0380157e-001
 -3.1152994e-001
 -2.7943251e-001
 -2.9504316e-001
 -2.9437454e-001
 -2.9217723e-001
 -2.8916081e-001
 -2.8933476e-001
 -3.0907485e-001
 -2.8225615e-001
 -2.7487804e-001
 -3.2287925e-001
 -3.3115563e-001
 -2.8413684e-001
 -2.9630762e-001
 -3.1921900e-001
 -2.6378473e-001
 -3.0814147e-001
 -2.9532281e-001
 -2.5230100e-001
 -3.2244577e-001
 -3.3390907e-001
 -2.8202925e-001
 -2.7640323e-001
 -2.9345324e-001
 -3.5713256e-001
 -4.1855208e-001
 -4.2911443e-001
 -4.6208760e-001
 -5.3225268e-001
 -6.0994548e-001
 -6.7480022e-001
 -6.9632996e-001
 -7.5161859e-001
 -8.3088317e-001
 -8.4668950e-001
 -7.5733911e-001
 -7.2597523e-001
 -6.3183235e-001
 -4.8525386e-001
 -4.2127462e-001
 -3.5309816e-001
 -2.9248780e-001
 -2.5219021e-001
 -2.3605913e-001
 -2.4098268e-001
 -2.2017839e-001
 -2.0768282e-001
 -2.0113683e-001
 -2.1051547e-001
 -2.0729551e-001
 -2.0013398e-001
 -2.1438047e-001
 -2.0893765e-001
 -2.0361562e-001
 -2.1332786e-001
 -2.2244025e-001
 -2.0681123e-001
 -1.9330792e-001
 -1.7632202e-001
 -1.3335817e-001
 -1.6632466e-001
 -1.6526574e-001
 -1.5768448e-001
 -1.8631161e-001
 -1.6244722e-001
 -1.4933278e-001
 -1.8240931e-001
 -1.5810076e-001
 -1.3368971e-001
 -1.4473456e-001
 -9.8090169e-002
 -9.3084470e-002
 -9.8366363e-002
 -1.0533064e-001
 -1.0395601e-001
 -7.1414121e-002
 -6.7681636e-002
 -8.4825648e-002
 -5.6333613e-002
 -6.3314435e-002
 -4.0446028e-002
 -4.2866473e-002
 -6.0836674e-002
 -9.1546076e-002
 -6.5042183e-002
 -5.0830979e-002
 -9.3922986e-002
 -1.2121636e-001
 -1.1175489e-001
 -9.7751564e-002
 -1.3839022e-001
 -1.5484080e-001
 -1.3850227e-001
 -1.5513143e-001
 -1.7061289e-001
 -1.8160554e-001
 -1.7379954e-001
 -1.6408551e-001
 -1.5965396e-001
 -1.7800186e-001
 -2.0475970e-001
 -1.8521426e-001
 -1.6645801e-001
 -1.8275709e-001
 -1.7231915e-001
 -1.7759507e-001
 -2.0793233e-001
 -2.0855483e-001
 -1.7772609e-001
 -1.7632845e-001
 -1.9692825e-001
 -2.0340614e-001
 -1.9222971e-001
 -1.9589891e-001
 -2.2728455e-001
 -2.2273417e-001
 -2.2092991e-001
 -2.1057581e-001
 -1.9669968e-001
 -2.1723488e-001
 -2.1521440e-001
 -2.1087252e-001
 -2.2953245e-001
 -2.3622868e-001
 -2.2613165e-001
 -2.3341522e-001
 -2.4693397e-001
 -2.5508326e-001
 -2.4581838e-001
 -2.4898253e-001
 -2.5926173e-001
 -2.5739614e-001
 -2.5382964e-001
 -2.6895295e-001
 -2.6300889e-001
 -2.4239253e-001
 -2.7976886e-001
 -2.6655339e-001
 -2.1809501e-001
 -2.3036661e-001
 -2.4787111e-001
 -2.3572086e-001
 -2.3946891e-001
 -2.4407542e-001
 -2.3904997e-001
 -2.2257714e-001
 -2.2162485e-001
 -2.4971004e-001
 -2.4008535e-001
 -2.2500444e-001
 -2.1241421e-001
 -2.0999043e-001
 -2.0181771e-001
 -2.0539491e-001
 -2.2137178e-001
 -2.0043108e-001
 -2.1396074e-001
 -2.2924813e-001
 -2.1613291e-001
 -2.1904011e-001
 -2.2638805e-001
 -1.9962779e-001
 -1.9181919e-001
 -2.2386910e-001
 -2.2327252e-001
 -2.0639105e-001
 -2.1363144e-001
 -2.0401348e-001
 -1.8103678e-001
 -1.9342240e-001
 -1.9947082e-001
 -1.9961077e-001
 -2.0412753e-001
 -1.8423274e-001
 -1.8052607e-001
 -1.9365142e-001
 -1.9792488e-001
 -2.0889391e-001
 -1.9594209e-001
 -1.8932285e-001
 -2.0692168e-001
 -2.0217041e-001
 -1.8306750e-001
 -1.8744807e-001
 -1.8686310e-001
 -1.9557682e-001
 -2.0357671e-001
 -1.9507061e-001
 -1.3366464e-001
 -1.2377424e-001
 -1.3325651e-001
 -1.2887487e-001
 -1.0792733e-001
 -7.2758623e-002
 -4.2367519e-002
 -1.0575220e-002
  3.2320137e-003
  5.1397324e-003
  2.1180910e-002
  4.1929742e-002
  3.9675256e-002
  2.2246764e-002
 -4.6187482e-002
 -1.3221829e-001
 -1.9517759e-001
 -2.4630200e-001
 -2.6167659e-001
 -2.4192388e-001
 -2.2226907e-001
 -2.2893373e-001
 -2.5678318e-001
 -2.3891623e-001
 -2.4973448e-001
 -2.7030371e-001
 -2.3794269e-001
 -2.2816965e-001
 -2.5060506e-001
 -2.5718110e-001
 -2.3200223e-001
 -2.3527679e-001
 -2.6266807e-001
 -2.5649166e-001
 -2.5157355e-001
 -2.5409103e-001
 -2.6774831e-001
 -2.5709811e-001
 -2.6824108e-001
 -3.2169486e-001
 -2.8442962e-001
 -2.3915994e-001
 -2.3942449e-001
 -3.1383434e-001
 -3.9133944e-001
 -4.2282673e-001
 -4.3739228e-001
 -4.7040765e-001
 -5.7581496e-001
 -6.6153485e-001
 -7.3726809e-001
 -8.2057647e-001
 -8.5530406e-001
 -7.8411655e-001
 -7.1939166e-001
 -6.7626729e-001
 -5.1378506e-001
 -4.2131468e-001
 -3.6869506e-001
 -2.7931706e-001
 -2.1831973e-001
 -1.9758373e-001
 -2.1980974e-001
 -1.9611286e-001
 -1.9195488e-001
 -2.0598436e-001
 -1.8653675e-001
 -1.6584473e-001
 -1.7461088e-001
 -1.9793444e-001
 -1.7547626e-001
 -1.5687445e-001
 -1.7165349e-001
 -1.6779966e-001
 -1.7985508e-001
 -1.7391452e-001
 -1.7048196e-001
 -1.4498277e-001
 -1.3713960e-001
 -1.4257420e-001
 -1.3570272e-001
 -1.3121502e-001
 -1.5280509e-001
 -1.4363598e-001
 -9.3778520e-002
 -1.0360535e-001
 -1.1091743e-001
 -8.4823210e-002
 -8.5085807e-002
 -8.5379621e-002
 -6.5065597e-002
 -4.4708679e-002
 -4.3837151e-002
 -4.3115692e-002
 -2.5697617e-002
 -3.2085135e-002
 -4.2884537e-002
 -1.8035044e-002
 -3.8596912e-002
 -4.4766693e-002
 -3.0933239e-002
 -3.6210014e-002
 -6.2973508e-002
 -6.1463197e-002
 -7.4302039e-002
 -7.7450658e-002
 -7.5560827e-002
 -1.1195243e-001
 -1.0875262e-001
 -1.0716488e-001
 -1.2561143e-001
 -1.5081206e-001
 -1.6980903e-001
 -1.4827191e-001
 -1.5220147e-001
 -1.7617587e-001
 -2.0207292e-001
 -1.8509499e-001
 -1.9284873e-001
 -2.0406051e-001
 -1.7440889e-001
 -1.8657871e-001
 -2.1007414e-001
 -1.9939629e-001
 -2.1137820e-001
 -2.2094903e-001
 -2.0564893e-001
 -1.8279667e-001
 -2.0654958e-001
 -2.2841368e-001
 -2.0950024e-001
 -2.2048833e-001
 -2.3156281e-001
 -2.3218413e-001
 -2.1808157e-001
 -2.3382933e-001
 -2.4552266e-001
 -2.2517315e-001
 -2.5151698e-001
 -2.7182620e-001
 -2.4854651e-001
 -2.4303923e-001
 -2.6132856e-001
 -2.7822859e-001
 -2.5148073e-001
 -2.5667414e-001
 -2.8773448e-001
 -2.7282470e-001
 -2.6917053e-001
 -2.9479776e-001
 -2.7065525e-001
 -2.7155671e-001
 -3.0357695e-001
 -2.9865760e-001
 -3.0281909e-001
 -3.0273040e-001
 -2.7191471e-001
 -2.6364828e-001
 -2.9573442e-001
 -2.9258238e-001
 -2.7754105e-001
 -2.7918453e-001
 -2.7110248e-001
 -2.8494030e-001
 -2.7747436e-001
 -2.9555569e-001
 -2.8561072e-001
 -2.4033503e-001
 -2.5957602e-001
 -2.8508742e-001
 -2.7301566e-001
 -2.4175805e-001
 -2.5464327e-001
 -2.6415916e-001
 -2.5384477e-001
 -2.6309711e-001
 -2.6500290e-001
 -2.4072218e-001
 -2.6250533e-001
 -2.9485420e-001
 -2.4417826e-001
 -2.2303012e-001
 -2.6208282e-001
 -2.7072581e-001
 -2.6201189e-001
 -2.6188734e-001
 -2.4040834e-001
 -2.2280029e-001
 -2.3677508e-001
 -2.5602163e-001
 -2.4133354e-001
 -2.3983344e-001
 -2.4977106e-001
 -2.4235463e-001
 -2.4253127e-001
 -2.4543689e-001
 -2.1973269e-001
 -2.1407899e-001
 -2.4020676e-001
 -2.6542799e-001
 -2.2734874e-001
 -2.1782948e-001
 -2.4021360e-001
 -2.4090881e-001
 -2.0848458e-001
 -2.2190173e-001
 -2.1786717e-001
 -2.0753931e-001
 -2.3181029e-001
 -2.1670387e-001
 -2.0864909e-001
 -2.4217501e-001
 -2.4013521e-001
 -2.0397625e-001
 -1.9033713e-001
 -2.0377533e-001
 -1.8035819e-001
 -1.5190359e-001
 -1.5316616e-001
 -1.3970005e-001
 -7.9637168e-002
 -6.1176929e-002
 -4.9622845e-002
 -1.5600088e-002
 -2.7660165e-002
 -2.4060280e-002
  5.7102687e-003
  2.2085619e-002
 -8.7623598e-002
 -1.8468221e-001
 -1.5320507e-001
 -2.3837311e-001
 -2.9585632e-001
 -2.5039959e-001
 -2.4374734e-001
 -2.7372543e-001
 -2.8725843e-001
 -2.7799828e-001
 -2.8526637e-001
 -2.9118929e-001
 -2.7591162e-001
 -2.7609560e-001
 -2.7043784e-001
 -2.6450810e-001
 -2.6507864e-001
 -2.7287620e-001
 -2.8247631e-001
 -2.7819201e-001
 -2.7421538e-001
 -2.8428120e-001
 -2.7898412e-001
 -2.5811126e-001
 -2.7184318e-001
 -2.6328251e-001
 -2.5726480e-001
 -3.0792378e-001
 -2.9757914e-001
 -2.2226404e-001
 -1.8374508e-001
 -2.0622930e-001
 -3.2786664e-001
 -4.0861514e-001
 -4.4350011e-001
 -4.4381780e-001
 -4.8739180e-001
 -5.5612976e-001
 -6.0491014e-001
 -6.7119019e-001
 -7.7339441e-001
 -8.4973686e-001
 -8.4668056e-001
 -8.0901078e-001
 -7.8418146e-001
 -6.8808004e-001
 -5.3147904e-001
 -4.6385716e-001
 -4.0671347e-001
 -2.9077811e-001
 -2.4999933e-001
 -2.4508927e-001
 -2.1554573e-001
 -2.1768975e-001
 -2.1582587e-001
 -1.9689442e-001
 -1.9071191e-001
 -2.0167695e-001
 -1.7237128e-001
 -1.5544255e-001
 -1.7154413e-001
 -2.0534705e-001
 -1.7453799e-001
 -1.6207649e-001
 -1.8096151e-001
 -1.8533228e-001
 -1.6407488e-001
 -1.7291224e-001
 -1.5659765e-001
 -1.4231553e-001
 -1.5300212e-001
 -1.5127357e-001
 -1.4033672e-001
 -1.4078718e-001
 -1.7302924e-001
 -1.6703315e-001
 -1.3845530e-001
 -1.1697443e-001
 -1.0906486e-001
 -1.1073513e-001
 -1.1371262e-001
 -1.0627964e-001
 -8.5500552e-002
 -8.9774777e-002
 -1.0206151e-001
 -9.1133929e-002
 -7.4715121e-002
 -9.8772091e-002
 -8.0884499e-002
 -3.8540429e-002
 -5.3923724e-002
 -6.5976502e-002
 -4.8867658e-002
 -5.9921334e-002
 -6.0660295e-002
 -5.3233071e-002
 -6.2555601e-002
 -8.2165365e-002
 -1.0036053e-001
 -9.6220210e-002
 -1.2926728e-001
 -1.2560429e-001
 -9.1321088e-002
 -1.3239107e-001
 -1.5055692e-001
 -1.2421203e-001
 -1.3636796e-001
 -1.7672111e-001
 -1.7691650e-001
 -1.7677936e-001
 -1.9428951e-001
 -2.0299168e-001
 -1.8410061e-001
 -1.8292716e-001
 -2.0227351e-001
 -1.8744458e-001
 -1.9029788e-001
 -2.1066347e-001
 -1.9438704e-001
 -1.8819558e-001
 -2.2589561e-001
 -2.1599342e-001
 -1.9033107e-001
 -2.0113056e-001
 -2.1481159e-001
 -2.1457852e-001
 -1.9044849e-001
 -2.0996571e-001
 -2.1447505e-001
 -2.0060820e-001
 -2.3120718e-001
 -2.5215613e-001
 -2.3065290e-001
 -2.0603403e-001
 -2.2511976e-001
 -2.2606288e-001
 -2.1241691e-001
 -2.4447144e-001
 -2.5719578e-001
 -2.3756784e-001
 -2.5073355e-001
 -2.7560936e-001
 -2.6688540e-001
 -2.6727138e-001
 -3.0454268e-001
 -2.9783967e-001
 -2.7350874e-001
 -3.1935227e-001
 -2.8840540e-001
 -2.6047008e-001
 -2.6678736e-001
 -2.8421134e-001
 -2.6851265e-001
 -2.7002088e-001
 -2.8529079e-001
 -2.6807260e-001
 -2.7899997e-001
 -2.7945190e-001
 -2.7259058e-001
 -2.5625922e-001
 -2.5995312e-001
 -2.7665965e-001
 -2.6596183e-001
 -2.5669870e-001
 -2.7790736e-001
 -2.6399481e-001
 -2.6945543e-001
 -2.6029379e-001
 -2.6461084e-001
 -2.4364626e-001
 -2.1420074e-001
 -2.2625352e-001
 -2.2488838e-001
 -2.3702637e-001
 -2.5879852e-001
 -2.3194792e-001
 -2.3270937e-001
 -2.6003069e-001
 -2.4582171e-001
 -2.4126556e-001
 -2.6227535e-001
 -2.6756356e-001
 -2.2720459e-001
 -2.2951606e-001
 -2.4871759e-001
 -2.2158513e-001
 -2.1697269e-001
 -2.3147629e-001
 -2.3969308e-001
 -2.4190514e-001
 -2.4473754e-001
 -2.4855066e-001
 -2.3711261e-001
 -2.4453712e-001
 -2.5834363e-001
 -2.4585896e-001
 -2.4311719e-001
 -2.4435028e-001
 -2.5182901e-001
 -2.3216724e-001
 -2.2371462e-001
 -2.2508184e-001
 -1.9482599e-001
 -1.8780257e-001
 -1.9801903e-001
 -1.9529527e-001
 -1.3380160e-001
 -1.0206087e-001
 -6.4668980e-002
 -2.9476542e-002
 -4.0581503e-002
 -4.1625676e-002
 -2.2651900e-002
 -1.6281857e-002
 -1.7919764e-002
 -2.9551613e-002
 -1.0044573e-001
 -1.7642628e-001
 -2.2827440e-001
 -2.6624157e-001
 -2.9985469e-001
 -2.9267248e-001
 -2.5590781e-001
 -2.6895888e-001
 -2.8642078e-001
 -2.8621521e-001
 -2.7637924e-001
 -2.8625506e-001
 -2.8128315e-001
 -2.9050116e-001
 -3.0221437e-001
 -2.8157966e-001
 -2.6185887e-001
 -2.8141408e-001
 -2.9952943e-001
 -2.9550566e-001
 -2.9017640e-001
 -2.8568836e-001
 -2.7346326e-001
 -2.5326073e-001
 -2.6195074e-001
 -2.8767053e-001
 -2.8995516e-001
 -3.2654770e-001
 -3.0392490e-001
 -2.5249053e-001
 -2.3896335e-001
 -2.6525909e-001
 -3.9819492e-001
 -4.6170900e-001
 -4.8690689e-001
 -4.5652509e-001
 -4.9201553e-001
 -6.0098653e-001
 -7.0391219e-001
 -7.4209749e-001
 -7.4784062e-001
 -8.1781148e-001
 -8.6363179e-001
 -8.2234570e-001
 -7.8663077e-001
 -7.4211964e-001
 -6.0044038e-001
 -4.8465266e-001
 -4.3597511e-001
 -3.5664708e-001
 -2.8557560e-001
 -2.6325998e-001
 -2.4276218e-001
 -2.1707641e-001
 -2.1378527e-001
 -2.3010633e-001
 -2.1655687e-001
 -1.8462791e-001
 -1.7794456e-001
 -1.8540837e-001
 -1.8615934e-001
 -1.8289697e-001
 -1.7658996e-001
 -1.8762664e-001
 -2.0171398e-001
 -1.9759014e-001
 -1.7974874e-001
 -1.8130575e-001
 -1.8690338e-001
 -1.7709294e-001
 -1.6513011e-001
 -1.5780720e-001
 -1.5825184e-001
 -1.5456925e-001
 -1.7786129e-001
 -1.4647020e-001
 -1.1270811e-001
 -1.4175219e-001
 -1.0035567e-001
 -7.9996638e-002
 -8.7708868e-002
 -1.0437897e-001
 -1.0096395e-001
 -7.7674728e-002
 -8.6986634e-002
 -9.1062313e-002
 -5.6377314e-002
 -1.7873017e-002
 -3.3964148e-002
 -4.2101607e-002
 -4.5172614e-002
 -9.1398348e-002
 -4.7777477e-002
 -4.4901663e-002
 -1.0205316e-001
 -1.1242485e-001
 -1.0761135e-001
 -1.2618972e-001
 -1.5673471e-001
 -1.4192329e-001
 -1.4647828e-001
 -1.8038121e-001
 -1.8610762e-001
 -1.6368864e-001
 -1.7438751e-001
 -1.9597439e-001
 -1.9891404e-001
 -2.3067104e-001
 -2.2610774e-001
 -2.1589030e-001
 -2.2722257e-001
 -2.4262517e-001
 -2.0652928e-001
 -2.1672952e-001
 -2.2728875e-001
 -2.4456861e-001
 -2.4750288e-001
 -2.7525081e-001
 -2.4618401e-001
 -2.2041351e-001
 -2.6530837e-001
 -2.4480683e-001
 -2.2154492e-001
 -2.0126777e-001
 -2.3726683e-001
 -2.4325395e-001
 -2.3876759e-001
 -2.4986161e-001
 -2.6172939e-001
 -2.6168805e-001
 -2.6321662e-001
 -2.8788824e-001
 -3.1580156e-001
 -3.0899259e-001
 -2.8107159e-001
 -2.7043214e-001
 -2.9059404e-001
 -3.2000365e-001
 -3.5753733e-001
 -3.2877316e-001
 -2.8028442e-001
 -3.0269685e-001
 -3.4178034e-001
 -2.9389091e-001
 -2.9954341e-001
 -3.3049683e-001
 -3.0844438e-001
 -3.1352791e-001
 -3.4309576e-001
 -3.3609641e-001
 -3.1420352e-001
 -3.2480498e-001
 -3.1601972e-001
 -3.0901942e-001
 -3.2058657e-001
 -3.4021665e-001
 -3.2552801e-001
 -3.3700887e-001
 -3.3149435e-001
 -2.7636952e-001
 -2.9412264e-001
 -3.0383165e-001
 -2.8831866e-001
 -3.0065361e-001
 -3.1776775e-001
 -2.9854283e-001
 -2.7637429e-001
 -3.1732719e-001
 -3.3252556e-001
 -3.0241824e-001
 -2.8328145e-001
 -3.0013352e-001
 -3.1017330e-001
 -2.9981556e-001
 -3.2144570e-001
 -3.2278150e-001
 -3.0097707e-001
 -3.1396256e-001
 -3.5139224e-001
 -3.4614696e-001
 -2.9988203e-001
 -3.1859805e-001
 -2.6627862e-001
 -2.5276183e-001
 -3.2950189e-001
 -3.3408271e-001
 -2.9443449e-001
 -2.9832141e-001
 -3.1273350e-001
 -2.9553802e-001
 -2.8397439e-001
 -3.0219655e-001
 -3.0522419e-001
 -2.8438670e-001
 -2.9474705e-001
 -3.1127350e-001
 -3.0291478e-001
 -3.0103315e-001
 -3.0115735e-001
 -2.6914062e-001
 -2.4309534e-001
 -2.5677809e-001
 -2.4794228e-001
 -2.0033691e-001
 -2.1316373e-001
 -2.0158966e-001
 -1.3660452e-001
 -1.2905455e-001
 -1.2226249e-001
 -8.3808300e-002
 -9.2114641e-002
 -1.0334044e-001
 -7.2962572e-002
 -6.3501077e-002
 -1.4756063e-001
 -2.0645307e-001
 -2.4240964e-001
 -3.4802710e-001
 -3.5848178e-001
 -3.0298800e-001
 -3.0560228e-001
 -3.4095399e-001
 -3.3312378e-001
 -3.2907772e-001
 -3.5053453e-001
 -3.5620714e-001
 -3.2745727e-001
 -3.4802321e-001
 -3.5072239e-001
 -3.2158531e-001
 -3.2045352e-001
 -3.3681882e-001
 -3.5592819e-001
 -3.4435155e-001
 -3.6506988e-001
 -3.6867307e-001
 -3.3962861e-001
 -3.6450448e-001
 -3.9877264e-001
 -4.2908435e-001
 -3.1446594e-001
 -2.9888571e-001
 -3.2023733e-001
 -3.8440196e-001
 -5.3708631e-001
 -5.8155112e-001
 -5.7402836e-001
 -6.1373430e-001
 -7.1633031e-001
 -7.8257415e-001
 -8.4311117e-001
 -9.6201902e-001
 -9.8797821e-001
 -8.7762515e-001
 -8.3257463e-001
 -7.6727201e-001
 -6.1691829e-001
 -5.2314118e-001
 -4.4604524e-001
 -3.4036729e-001
 -2.9462104e-001
 -3.0640820e-001
 -3.0733781e-001
 -2.5559310e-001
 -2.5190377e-001
 -2.5085332e-001
 -2.1900377e-001
 -2.3600567e-001
 -2.8384607e-001
 -2.7131479e-001
 -2.6302090e-001
 -2.7432955e-001
 -2.5647730e-001
 -2.3077552e-001
 -2.4717144e-001
 -2.5590159e-001
 -2.5704421e-001
 -2.1878016e-001
 -2.2412365e-001
 -2.5594259e-001
 -3.1833445e-001
 -2.6856246e-001
 -1.8441211e-001
 -2.4010174e-001
 -2.6610556e-001
 -3.5952134e-001
 -3.1434912e-001
 -1.5483609e-001
  5.1295136e-003
 -3.0608997e-002
 -1.1309942e-001
 -1.4768528e-001
 -1.8490393e-001
 -2.0656651e-001
 -2.8454092e-001
 -2.5552507e-001
 -1.3741080e-001
 -1.0382151e-001
 -1.2268699e-001
 -1.2623812e-001
 -4.0216562e-001
 -5.7303893e-001
 -4.0547206e-001
 -1.4144067e-001
 -7.3114964e-002
 -8.3509037e-002
 -2.9085144e-001
 -5.8578458e-001
 -4.5436764e-001
 -3.2917911e-002
  4.9667896e-002
 -2.5593660e-001
 -5.7173922e-001
 -6.8810862e-001
 -3.8783858e-001
 -7.8933308e-002
 -1.1700941e-001
 -3.2892532e-001
 -5.4257974e-001
 -7.2349495e-001
 -3.4149628e-001
  2.6017390e-002
 -1.4655592e-001
 -4.1506230e-001
 -3.5535162e-001
 -5.3246489e-001
 -8.7415742e-001
 -3.6331033e-001
  5.6557217e-002
  7.6369785e-002
 -4.2955861e-002
 -2.7669828e-001
 -3.2828188e-001
 -4.5589096e-001
 -6.3632347e-001
 -5.0259561e-001
 -1.2501709e-001
 -1.9721915e-001
 -2.4723357e-001
 -1.3819761e-001
 -3.9487158e-001
 -5.9376848e-001
 -2.8145917e-001
 -2.1934671e-001
 -4.7967625e-001
 -3.2785846e-001
 -6.2337302e-002
 -2.5499167e-001
 -3.8865729e-001
 -2.6138298e-001
 -3.1427635e-001
 -3.2625294e-001
 -3.0431681e-001
 -2.8951984e-001
 -3.0665828e-001
 -4.4818973e-001
 -5.4806495e-001
 -4.1406710e-001
 -3.5038881e-001
 -3.0108210e-001
 -3.7998281e-001
 -3.5200585e-001
 -1.1176217e-001
 -3.3553382e-003
 -2.0102727e-001
 -4.0658831e-001
 -4.9191666e-001
 -3.0493866e-001
 -9.1904771e-002
 -1.5046164e-001
 -4.6011032e-001
 -6.1134938e-001
 -1.6588335e-001
  2.2259956e-002
 -2.6318964e-001
 -2.1458141e-001
 -2.0368777e-001
 -2.9543023e-001
 -2.7260189e-001
 -2.6717470e-001
 -2.4500634e-001
 -1.3130236e-001
 -1.7924126e-001
 -2.4970404e-001
 -3.0620966e-001
 -3.2926656e-001
 -3.2416342e-001
 -4.0174390e-001
 -2.9524193e-001
 -1.5696928e-001
 -3.2814723e-001
 -3.8587472e-001
 -2.7627643e-001
 -1.8709617e-001
 -1.4829874e-001
 -2.2799979e-001
 -3.6312641e-001
 -4.3489922e-001
 -7.4032475e-002
  7.6811216e-002
 -1.2480973e-001
 -2.0193765e-001
 -2.7586400e-001
 -2.8983310e-001
 -3.3494985e-001
 -2.9088250e-001
 -4.0461448e-001
 -1.9282957e-001
  1.0788031e-001
  7.4567801e-002
  4.7750942e-002
 -6.0010422e-002
 -1.9575724e-001
 -9.5110690e-002
  1.0319450e-001
  6.2234519e-002
 -8.7282235e-002
 -2.0092513e-001
 -4.5810499e-001
 -5.3574212e-001
 -1.3359944e-001
 -1.7983310e-001
 -3.7256540e-001
 -2.2863663e-001
 -1.8352240e-001
 -2.7872338e-001
 -3.8198882e-001
 -4.0532482e-001
 -3.3631863e-001
 -1.3896408e-001
 -1.5303918e-001
 -3.2852867e-001
 -3.6877474e-001
 -2.7697384e-001
 -1.8943745e-001
 -2.6191843e-001
 -3.7303756e-001
 -3.6414501e-001
 -1.8907948e-001
 -3.0307306e-001
 -4.4581215e-001
 -2.6396685e-001
 -1.2569550e-001
 -2.8158270e-001
 -4.1928039e-001
 -3.3307591e-001
 -4.1089225e-001
 -3.8573343e-001
 -5.1649216e-001
 -7.0249841e-001
 -6.1552490e-001
 -6.2699373e-001
 -7.9587632e-001
 -8.3497253e-001
 -7.8934571e-001
 -7.5281248e-001
 -5.6834449e-001
 -4.2664476e-001
 -5.1452595e-001
 -2.9236961e-001
 -7.1869222e-002
 -1.9079696e-001
 -2.2775992e-001
 -2.1159762e-001
 -2.4411211e-001
 -2.2956776e-001
 -2.0179751e-001
 -1.8797389e-001
 -1.2996260e-001
 -1.6283232e-001
 -1.4965514e-001
 -2.0331737e-001
 -2.6715701e-001
 -2.2205780e-001
 -1.2644030e-001
 -1.3131052e-001
 -1.8914505e-001
 -1.8673748e-001
 -1.3874148e-001
 -9.6409718e-002
 -1.4426269e-001
 -1.8078837e-001
 -1.3580671e-001
 -1.3863218e-001
 -1.4122548e-001
 -9.8467999e-002
 -4.3909418e-002
 -1.0460111e-001
 -1.7532536e-001
 -1.0245330e-001
 -1.8552729e-003
 -7.3177248e-002
 -7.6222004e-002
 -3.2190284e-002
 -8.7013172e-002
 -5.5535362e-002
 -4.6888677e-002
 -5.2855022e-002
 -2.0907790e-002
 -2.8575269e-002
 -5.1687606e-002
 -1.1316111e-001
 -7.5924561e-002
 -4.1899119e-002
 -1.0319606e-001
 -1.2180560e-001
 -1.3538925e-001
 -1.4956578e-001
 -1.7314281e-001
 -1.7073553e-001
 -1.6564389e-001
 -2.0954257e-001
 -1.7135038e-001
 -1.7162468e-001
 -2.3013774e-001
 -1.7999967e-001
 -1.6621519e-001
 -1.9116148e-001
 -2.3746825e-001
 -2.3861681e-001
 -2.1553623e-001
 -2.2825059e-001
 -2.3522505e-001
 -2.4737388e-001
 -2.4896215e-001
 -2.3156695e-001
 -2.1214840e-001
 -2.0281547e-001
 -2.4735649e-001
 -2.6063888e-001
 -2.4099119e-001
 -2.7265951e-001
 -2.9055386e-001
 -2.6344087e-001
 -2.7031308e-001
 -2.8358383e-001
 -2.6233938e-001
 -2.7439177e-001
 -3.0323829e-001
 -3.0759189e-001
 -2.7774569e-001
 -2.9663692e-001
 -3.0347762e-001
 -2.8629307e-001
 -3.3065686e-001
 -3.2278988e-001
 -2.9654365e-001
 -3.3328946e-001
 -3.6949169e-001
 -3.4239719e-001
 -3.3822901e-001
 -3.6032607e-001
 -3.4307104e-001
 -3.3901555e-001
 -3.5652663e-001
 -3.4986226e-001
 -3.4062734e-001
 -3.4866122e-001
 -3.5753504e-001
 -3.5878975e-001
 -3.7689643e-001
 -3.7800811e-001
 -3.7372243e-001
 -3.7342469e-001
 -3.3032458e-001
 -3.1459443e-001
 -2.6600653e-001
 -3.2832469e-001
 -3.6265441e-001
 -3.2892602e-001
 -3.4885985e-001
 -3.3493253e-001
 -3.0608127e-001
 -3.0245512e-001
 -3.3088098e-001
 -3.4887007e-001
 -3.3583188e-001
 -3.5464701e-001
 -3.5913311e-001
 -3.2084689e-001
 -3.2001490e-001
 -3.5197117e-001
 -3.2774208e-001
 -2.9901366e-001
 -3.3268021e-001
 -3.4374157e-001
 -3.3491527e-001
 -3.4369060e-001
 -3.3165253e-001
 -2.9267501e-001
 -3.0561948e-001
 -3.6548495e-001
 -3.4537074e-001
 -2.9380600e-001
 -3.1250385e-001
 -3.0674827e-001
 -3.1841012e-001
 -3.3921669e-001
 -3.0915756e-001
 -2.9783427e-001
 -3.2446279e-001
 -3.4170249e-001
 -3.0639777e-001
 -2.9254850e-001
 -3.3654180e-001
 -3.1028258e-001
 -2.2078782e-001
 -1.8280593e-001
 -2.7058818e-001
 -3.0800760e-001
 -2.6666229e-001
 -2.1422761e-001
 -1.4946558e-001
 -1.1007972e-001
 -1.2911835e-001
 -1.3755025e-001
 -1.0188067e-001
 -8.8621905e-002
 -9.7843961e-002
 -1.1520542e-001
 -1.8224069e-001
 -2.7371627e-001
 -3.2232838e-001
 -3.5025127e-001
 -3.7116701e-001
 -3.4124849e-001
 -3.3618348e-001
 -3.8797457e-001
 -4.1673241e-001
 -3.7638263e-001
 -3.2110206e-001
 -3.5762788e-001
 -3.7460254e-001
 -3.4696019e-001
 -3.6869388e-001
 -3.7550651e-001
 -3.5501840e-001
 -3.3167557e-001
 -3.6063548e-001
 -3.5549908e-001
 -3.4732220e-001
 -3.7620908e-001
 -3.9292674e-001
 -3.7036133e-001
 -3.6024706e-001
 -3.6428219e-001
 -3.2058276e-001
 -2.8034809e-001
 -2.9294767e-001
 -3.0901255e-001
 -4.4233469e-001
 -5.1056058e-001
 -5.0901175e-001
 -5.0606739e-001
 -5.9288981e-001
 -6.6209346e-001
 -7.1687735e-001
 -8.3691167e-001
 -8.9054876e-001
 -9.0162801e-001
 -8.9774324e-001
 -8.5165108e-001
 -7.8587096e-001
 -6.5964935e-001
 -5.6382547e-001
 -5.0823165e-001
 -3.8453543e-001
 -3.2808074e-001
 -3.4062584e-001
 -2.9631995e-001
 -2.6907130e-001
 -3.0036534e-001
 -2.8653197e-001
 -2.5952805e-001
 -2.4828958e-001
 -2.5318477e-001
 -2.5381096e-001
 -2.6808673e-001
 -2.7847660e-001
 -2.3703628e-001
 -2.4546854e-001
 -2.6234422e-001
 -2.2852181e-001
 -2.3931268e-001
 -2.5748823e-001
 -2.6510433e-001
 -2.5060738e-001
 -2.2119876e-001
 -2.0564232e-001
 -1.7190531e-001
 -1.7792162e-001
 -2.2093576e-001
 -2.2374457e-001
 -1.8153349e-001
 -1.8195976e-001
 -1.9102899e-001
 -1.7261638e-001
 -1.5084991e-001
 -1.6966196e-001
 -1.6391824e-001
 -1.2195074e-001
 -1.3331962e-001
 -1.4209943e-001
 -1.1955601e-001
 -1.1317337e-001
 -1.2230396e-001
 -1.1923595e-001
 -1.2003900e-001
 -1.5176856e-001
 -1.3899363e-001
 -1.2421568e-001
 -1.3446909e-001
 -1.1420656e-001
 -1.0961005e-001
 -1.6697589e-001
 -1.8162138e-001
 -1.2343593e-001
 -1.4792373e-001
 -1.8308474e-001
 -1.8900419e-001
 -1.8563534e-001
 -2.2070920e-001
 -2.0957632e-001
 -2.0083680e-001
 -2.4635921e-001
 -2.3352470e-001
 -1.9922778e-001
 -2.1319722e-001
 -2.3503495e-001
 -2.3742340e-001
 -2.5248199e-001
 -2.8406745e-001
 -2.9156552e-001
 -2.6931147e-001
 -2.5598721e-001
 -2.6509532e-001
 -2.4894691e-001
 -2.4197936e-001
 -2.7141239e-001
 -2.5840812e-001
 -2.3000352e-001
 -2.4281068e-001
 -2.4545811e-001
 -2.5271850e-001
 -2.9532677e-001
 -3.1000323e-001
 -2.9770469e-001
 -2.4610946e-001
 -2.0462972e-001
 -1.9274261e-001
 -2.1010859e-001
 -2.3894724e-001
 -2.0774726e-001
 -1.1995833e-001
  5.4493772e-003
  2.2805729e-001
  5.5890424e-001
  8.3454306e-001
  1.0259180e+000
  1.0680675e+000
  9.8471298e-001
  9.2991162e-001
  7.3295490e-001
  3.5642015e-001
  1.0098128e-001
  3.9424724e-002
 -4.7756138e-002
 -2.1459498e-001
 -3.2796520e-001
 -4.8638184e-001
 -4.7927020e-001
 -4.4678019e-001
 -5.6802899e-001
 -6.2733299e-001
 -5.8497804e-001
 -5.4924260e-001
 -5.2730115e-001
 -5.4369572e-001
 -5.5288963e-001
 -5.4217115e-001
 -5.5784564e-001
 -5.8249517e-001
 -5.8781713e-001
 -5.9295037e-001
 -6.2486853e-001
 -6.2599746e-001
 -6.3057794e-001
 -6.5338221e-001
 -6.6319033e-001
 -6.6036884e-001
 -6.6921381e-001
 -6.9514706e-001
 -6.7891377e-001
 -6.7973664e-001
 -7.1979347e-001
 -7.2990619e-001
 -7.2563181e-001
 -7.4235796e-001
 -7.3607084e-001
 -7.2837720e-001
 -7.5039637e-001
 -7.4957731e-001
 -7.6221298e-001
 -7.8298798e-001
 -7.6439341e-001
 -7.3353976e-001
 -7.0423252e-001
 -6.9702662e-001
 -7.0149475e-001
 -6.8291035e-001
 -6.5485846e-001
 -6.5086131e-001
 -6.2868495e-001
 -6.0522467e-001
 -5.9663331e-001
 -5.6383754e-001
 -5.1954982e-001
 -5.0870373e-001
 -4.6480630e-001
 -4.0907526e-001
 -3.6018128e-001
 -3.2562805e-001
 -2.9942592e-001
 -2.4663362e-001
 -2.5567977e-001
 -2.4859742e-001
 -2.0744374e-001
 -2.1061567e-001
 -1.7200258e-001
 -1.2093889e-001
 -1.0497923e-001
 -1.9674635e-001
 -2.3062791e-001
 -2.5126584e-001
 -3.3125378e-001
 -3.7137156e-001
 -3.4463839e-001
 -3.4215600e-001
 -3.5669509e-001
 -3.4969882e-001
 -3.4905699e-001
 -3.2905437e-001
 -2.9377510e-001
 -2.9394950e-001
 -3.3548928e-001
 -3.2266287e-001
 -2.9867994e-001
 -3.1664517e-001
 -3.1027853e-001
 -2.8334137e-001
 -2.9234900e-001
 -2.9953790e-001
 -2.9219069e-001
 -2.8191932e-001
 -2.9268089e-001
 -2.7878217e-001
 -2.4996111e-001
 -2.6659678e-001
 -2.3876013e-001
 -2.3046511e-001
 -2.5358663e-001
 -2.6320157e-001
 -2.5597062e-001
 -2.6966340e-001
 -2.8074425e-001
 -2.3876257e-001
 -2.1244650e-001
 -2.4542650e-001
 -2.3981354e-001
 -1.8466433e-001
 -1.9064030e-001
 -2.3161872e-001
 -2.2856192e-001
 -2.1294873e-001
 -2.4175785e-001
 -2.5755113e-001
 -2.4007751e-001
 -2.1035092e-001
 -1.9600979e-001
 -2.0138743e-001
 -2.0683309e-001
 -2.1632012e-001
 -2.1150425e-001
 -2.0825453e-001
 -2.1115315e-001
 -2.1363056e-001
 -2.2006505e-001
 -2.2893488e-001
 -2.5011562e-001
 -2.2552416e-001
 -1.9766066e-001
 -2.2741855e-001
 -2.2172246e-001
 -2.0924857e-001
 -2.0010689e-001
 -1.9245414e-001
 -2.0481095e-001
 -2.1259131e-001
 -2.0737086e-001
 -1.9421400e-001
 -1.9522271e-001
 -2.1395295e-001
 -2.0492789e-001
 -2.0173371e-001
 -1.7177682e-001
 -1.8192346e-001
 -1.9080130e-001
 -1.9119711e-001
 -2.0490973e-001
 -1.8175461e-001
 -1.7493135e-001
 -1.9516244e-001
 -1.7651449e-001
 -1.8144885e-001
 -1.9818475e-001
 -1.8483816e-001
 -1.8343392e-001
 -2.0848253e-001
 -2.2647496e-001
 -1.8442770e-001
 -1.6275389e-001
 -1.9628537e-001
 -1.8437474e-001
 -1.7720918e-001
 -2.1216347e-001
 -2.0336731e-001
 -1.8455566e-001
 -2.0681922e-001
 -2.0171728e-001
 -1.7619625e-001
 -1.9086274e-001
 -2.0517892e-001
 -2.0648778e-001
 -2.0515948e-001
 -1.8505999e-001
 -1.5536534e-001
 -1.5375290e-001
 -1.6826694e-001
 -1.9988700e-001
 -1.9596994e-001
 -1.6410440e-001
 -1.8892550e-001
 -2.0156577e-001
 -1.8697321e-001
 -1.8622863e-001
 -2.0383273e-001
 -1.8609068e-001
 -1.8205374e-001
 -1.9251922e-001
 -1.6473167e-001
 -1.6043223e-001
 -1.9835262e-001
 -2.0811396e-001
 -1.8278457e-001
 -1.8352810e-001
 -1.8885916e-001
 -1.6981665e-001
 -1.8691143e-001
 -2.1459256e-001
 -1.8819481e-001
 -1.7729577e-001
 -1.8801443e-001
 -1.9845462e-001
 -1.8863264e-001
 -1.9711989e-001
 -2.1528806e-001
 -1.7189137e-001
 -1.7375132e-001
 -1.8709553e-001
 -1.7569723e-001
 -1.8304657e-001
 -1.9549146e-001
 -1.6606084e-001
 -1.6028304e-001
 -1.7127148e-001
 -1.7656418e-001
 -1.8551290e-001
 -2.0883087e-001
 -2.1596464e-001
 -2.1005545e-001
 -1.9813782e-001
 -1.8305287e-001
 -1.9604705e-001
 -2.1186703e-001
 -2.0554127e-001
 -1.8555879e-001
 -1.7209585e-001
 -1.7231152e-001
 -1.9280304e-001
 -1.9192041e-001
 -1.7746321e-001
 -2.0822179e-001
 -1.9600070e-001
 -1.7962138e-001
 -2.0432808e-001
 -2.0232813e-001
 -1.8868936e-001
 -2.0124565e-001
 -2.0711556e-001
 -1.9676177e-001
 -1.9250628e-001
 -2.1764899e-001
 -2.1965078e-001
 -1.8865259e-001
 -2.0307179e-001
 -2.0330817e-001
 -1.8728038e-001
 -2.1153965e-001
 -2.1675324e-001
 -1.9472962e-001
 -1.7983749e-001
 -2.0273438e-001
 -2.2133542e-001
 -1.8583152e-001
 -1.9778267e-001
 -2.0859843e-001
 -1.9549269e-001
 -1.9834206e-001
 -2.1373148e-001
 -1.9486295e-001
 -1.7322196e-001
 -1.8974879e-001
 -1.9564440e-001
 -1.7244014e-001
 -1.9398660e-001
 -1.8250405e-001
 -1.3981911e-001
 -1.4997830e-001
 -1.4197292e-001
 -1.1720507e-001
 -1.0721780e-001
 -5.9937385e-002
 -2.6643555e-002
  1.5701007e-003
  4.6288184e-003
  4.0226270e-003
  9.0980653e-003
  1.1675527e-002
  2.4549200e-002
  5.6179080e-002
 -5.5682868e-003
 -1.1928702e-001
 -1.3563221e-001
 -1.8370929e-001
 -2.5428361e-001
 -2.3362131e-001
 -2.3296337e-001
 -2.6998646e-001
 -2.4650450e-001
 -2.0546813e-001
 -2.3734806e-001
 -2.5519148e-001
 -2.3175415e-001
 -2.5240885e-001
 -2.6984150e-001
 -2.5770316e-001
 -2.2108864e-001
 -2.2909996e-001
 -2.3132052e-001
 -2.1930684e-001
 -2.4702537e-001
 -2.4663678e-001
 -2.3730089e-001
 -2.3132139e-001
 -2.3159621e-001
 -2.3153519e-001
 -2.5025390e-001
 -1.8893184e-001
 -1.8424050e-001
 -1.7536174e-001
 -1.2433889e-001
 -2.6480110e-001
 -3.9023059e-001
 -4.0927855e-001
 -4.7566937e-001
 -5.7643589e-001
 -5.9788529e-001
 -6.5105510e-001
 -7.1981110e-001
 -7.9741156e-001
 -8.1881181e-001
 -7.9389074e-001
 -7.1961073e-001
 -6.4627106e-001
 -5.4499051e-001
 -4.3365529e-001
 -3.0905054e-001
 -2.3238114e-001
 -2.0688492e-001
 -1.7074902e-001
 -1.6001903e-001
 -1.7686066e-001
 -1.6191469e-001
 -1.4169827e-001
 -1.4557841e-001
 -1.4849185e-001
 -1.4744794e-001
 -1.3581394e-001
 -1.2347410e-001
 -1.0533657e-001
 -1.0576303e-001
 -1.5762046e-001
 -1.2829102e-001
 -1.3463562e-001
 -1.4129160e-001
 -1.3364275e-001
 -1.3596514e-001
 -1.0405220e-001
 -1.0993402e-001
 -1.1474138e-001
 -1.0976668e-001
 -1.1099619e-001
 -1.1115714e-001
 -8.7869697e-002
 -8.1327409e-002
 -8.5852905e-002
 -7.5167038e-002
 -8.6950742e-002
 -9.7093590e-002
 -7.9440171e-002
 -7.3512631e-002
 -7.9389234e-002
 -8.5944025e-002
 -6.2127295e-002
 -7.5091857e-002
 -9.9140055e-002
 -6.9526279e-002
 -5.6879124e-002
 -5.6584474e-002
 -5.0178462e-002
 -5.6786605e-002
 -7.8954242e-002
 -1.0346842e-001
 -9.8578477e-002
 -1.0315460e-001
 -1.1427586e-001
 -6.0953784e-002
 -9.1130681e-002
 -1.3304114e-001
 -9.7637110e-002
 -1.1855059e-001
 -1.6499287e-001
 -1.1972630e-001
 -1.1363435e-001
 -1.5829256e-001
 -1.6320560e-001
 -1.2403419e-001
 -1.2389930e-001
 -1.5248407e-001
 -1.5788077e-001
 -1.4886817e-001
 -1.7925663e-001
 -1.6390978e-001
 -1.2605379e-001
 -1.5346663e-001
 -1.8298880e-001
 -1.8366225e-001
 -1.5624445e-001
 -1.5387423e-001
 -1.5698421e-001
 -1.7864056e-001
 -2.0728360e-001
 -1.3446249e-001
 -1.3428516e-001
 -1.5212355e-001
 -1.6553446e-001
 -1.7129687e-001
 -1.7975661e-001
 -1.9795558e-001
 -1.8277804e-001
 -2.0316445e-001
 -1.9848124e-001
 -1.9546524e-001
 -2.0235554e-001
 -1.9690310e-001
 -2.1068185e-001
 -2.1304329e-001
 -2.1556863e-001
 -2.3121810e-001
 -2.2650589e-001
 -2.3703363e-001
 -2.6189498e-001
 -2.5074075e-001
 -2.5158234e-001
 -2.6556499e-001
 -2.6646813e-001
 -2.5196796e-001
 -2.3008088e-001
 -2.5019686e-001
 -2.4402702e-001
 -2.1974134e-001
 -2.3594292e-001
 -2.4570359e-001
 -2.2342059e-001
 -2.2251652e-001
 -2.0825438e-001
 -1.9139929e-001
 -2.2506450e-001
 -2.5132524e-001
 -2.3462394e-001
 -2.2254809e-001
 -2.2677847e-001
 -2.0371928e-001
 -1.8892991e-001
 -1.9683288e-001
 -2.0364283e-001
 -1.8404260e-001
 -1.8735467e-001
 -2.0377786e-001
 -1.9114584e-001
 -1.8695705e-001
 -2.1111895e-001
 -2.0806014e-001
 -1.5806409e-001
 -1.5268354e-001
 -1.8149940e-001
 -1.7440705e-001
 -1.9336471e-001
 -2.0425606e-001
 -1.6782972e-001
 -1.6945746e-001
 -2.0858124e-001
 -2.0931274e-001
 -1.9308650e-001
 -1.9252611e-001
 -1.6850572e-001
 -1.6697010e-001
 -1.8994119e-001
 -1.8588111e-001
 -1.4221330e-001
 -1.4066118e-001
 -1.8530327e-001
 -1.4999123e-001
 -9.3109080e-002
 -9.5646948e-002
 -1.0180637e-001
 -6.5675892e-002
 -4.1492977e-002
 -3.2470474e-002
  1.4851565e-002
  3.0076525e-002
  1.3355281e-002
  2.1079444e-002
  7.7823884e-002
  6.8593911e-002
 -7.7882326e-003
 -6.6032570e-002
 -1.3532558e-001
 -2.2037670e-001
 -2.3483800e-001
 -2.3315528e-001
 -2.1960165e-001
 -2.2197164e-001
 -2.5248293e-001
 -2.4660345e-001
 -2.3606158e-001
 -2.4121719e-001
 -2.4764860e-001
 -2.4896878e-001
 -2.1026204e-001
 -2.1412387e-001
 -2.4751774e-001
 -2.4891521e-001
 -2.3942302e-001
 -2.4222094e-001
 -2.3633203e-001
 -2.2884508e-001
 -2.1882718e-001
 -2.0012031e-001
 -2.3756670e-001
 -2.5664925e-001
 -2.4024437e-001
 -2.1942973e-001
 -2.2153973e-001
 -3.3678537e-001
 -4.6302522e-001
 -4.7590144e-001
 -4.8850054e-001
 -5.9011139e-001
 -6.7492121e-001
 -7.2112236e-001
 -8.1965408e-001
 -8.6265716e-001
 -8.8375113e-001
 -8.7455063e-001
 -7.8781161e-001
 -7.1547858e-001
 -5.8196197e-001
 -4.8457384e-001
 -3.7813757e-001
 -2.7221006e-001
 -2.5153678e-001
 -2.0332343e-001
 -1.4243253e-001
 -1.4556747e-001
 -1.7502668e-001
 -1.4398796e-001
 -1.4464849e-001
 -1.5348288e-001
 -1.3760371e-001
 -1.3655798e-001
 -1.3162347e-001
 -1.2519956e-001
 -1.2708663e-001
 -1.4696917e-001
 -1.2327455e-001
 -9.0604852e-002
 -1.1876068e-001
 -1.3050093e-001
 -1.1222306e-001
 -9.0998729e-002
 -1.0935674e-001
 -9.8269007e-002
 -8.8402012e-002
 -9.3669126e-002
 -9.1149051e-002
 -5.2406264e-002
 -4.2971028e-002
 -6.6737256e-002
 -3.4430439e-002
 -1.8756937e-002
 -3.1460332e-002
 -1.7685232e-002
 -1.3323468e-002
 -1.8900329e-002
 -4.3932241e-003
 -1.0091082e-003
 -1.6120888e-002
 -4.0298309e-002
 -2.8513715e-002
  4.9819427e-003
  1.0100717e-002
 -8.0644640e-003
 -4.0033858e-003
 -8.8747960e-003
 -2.2690895e-002
 -1.4665538e-002
 -2.5532619e-002
 -4.1410214e-002
 -5.5482193e-002
 -5.3609192e-002
 -6.9458532e-002
 -9.8255250e-002
 -1.0818228e-001
 -1.2825146e-001
 -1.2581947e-001
 -1.2657860e-001
 -1.4963111e-001
 -1.6343683e-001
 -1.4992766e-001
 -1.3758499e-001
 -1.5796765e-001
 -1.5315724e-001
 -1.4419281e-001
 -1.6813853e-001
 -1.7396633e-001
 -1.4684603e-001
 -1.4791288e-001
 -1.8767242e-001
 -1.8064287e-001
 -1.5725266e-001
 -1.7184755e-001
 -1.7333670e-001
 -1.7741138e-001
 -1.7358748e-001
 -1.8832360e-001
 -1.8736869e-001
 -1.6932417e-001
 -1.8616412e-001
 -1.8764888e-001
 -1.8462174e-001
 -1.9590629e-001
 -1.9998653e-001
 -2.0823005e-001
 -2.2801260e-001
 -2.2985660e-001
 -1.9832113e-001
 -1.9339334e-001
 -2.0007816e-001
 -2.1763847e-001
 -2.2490940e-001
 -2.5419047e-001
 -2.4516940e-001
